-0.0184275 3.38026e-17
-0.0184185 1.13787e-16
-0.0184095 3.47977e-17
-0.0184005 3.55098e-16
-0.0183915 3.07343e-16
-0.0183825 4.33493e-17
-0.0183735 2.70375e-16
-0.0183645 9.3648e-17
-0.0183555 3.76991e-17
-0.0183465 5.55883e-17
-0.0183375 3.13272e-16
-0.0183285 1.51594e-16
-0.0183195 1.59973e-16
-0.0183105 5.72438e-16
-0.0183015 1.73173e-16
-0.0182925 6.53136e-17
-0.0182835 1.10353e-16
-0.0182745 4.21891e-17
-0.0182655 6.32224e-17
-0.0182565 2.54356e-16
-0.0182475 2.05763e-16
-0.0182385 4.57153e-17
-0.0182295 2.77137e-16
-0.0182205 1.33135e-16
-0.0182115 3.42029e-17
-0.0182025 3.59443e-17
-0.0181935 1.29604e-16
-0.0181845 5.10222e-17
-0.0181755 2.48071e-16
-0.0181665 5.15227e-16
-0.0181575 6.63233e-17
-0.0181485 2.12113e-16
-0.0181395 1.50394e-16
-0.0181305 6.85376e-17
-0.0181215 1.22879e-16
-0.0181125 6.38982e-17
-0.0181035 2.3904e-16
-0.0180945 3.39288e-17
-0.0180855 4.14848e-16
-0.0180765 4.37218e-16
-0.0180675 4.85318e-17
-0.0180585 6.8633e-17
-0.0180495 3.77034e-17
-0.0180405 3.57705e-17
-0.0180315 2.22858e-16
-0.0180225 5.36931e-16
-0.0180135 1.44925e-16
-0.0180045 1.2946e-16
-0.0179955 2.0051e-16
-0.0179865 3.67352e-17
-0.0179775 1.01678e-16
-0.0179685 6.81005e-17
-0.0179595 4.02069e-16
-0.0179505 9.85807e-17
-0.0179415 3.16529e-16
-0.0179325 6.19001e-16
-0.0179235 7.89469e-17
-0.0179145 1.36675e-16
-0.0179055 7.61495e-17
-0.0178965 5.74052e-17
-0.0178875 3.64781e-17
-0.0178785 1.92306e-16
-0.0178695 2.51631e-16
-0.0178605 3.6744e-17
-0.0178515 3.33314e-16
-0.0178425 2.8405e-16
-0.0178335 7.06812e-17
-0.0178245 4.74082e-17
-0.0178155 6.35567e-17
-0.0178065 3.88954e-17
-0.0177975 3.06926e-16
-0.0177885 3.60928e-16
-0.0177795 3.45262e-17
-0.0177705 2.93601e-16
-0.0177615 2.66686e-16
-0.0177525 5.43854e-17
-0.0177435 4.34489e-17
-0.0177345 1.46026e-16
-0.0177255 1.04549e-16
-0.0177165 1.19348e-16
-0.0177075 6.13177e-16
-0.0176985 4.23616e-16
-0.0176895 5.97975e-17
-0.0176805 3.58772e-17
-0.0176715 3.41162e-17
-0.0176625 9.2586e-17
-0.0176535 5.452e-16
-0.0176445 6.56192e-16
-0.0176355 5.23218e-17
-0.0176265 4.04905e-16
-0.0176175 4.41167e-16
-0.0176085 4.09016e-17
-0.0175995 6.65128e-17
-0.0175905 6.466e-17
-0.0175815 2.85639e-16
-0.0175725 5.73321e-17
-0.0175635 3.14789e-16
-0.0175545 5.42419e-16
-0.0175455 8.54778e-17
-0.0175365 1.10089e-16
-0.0175275 1.35529e-16
-0.0175185 6.56521e-17
-0.0175095 1.18788e-16
-0.0175005 2.90564e-16
-0.0174915 1.59645e-16
-0.0174825 6.10849e-17
-0.0174735 3.35307e-16
-0.0174645 2.92845e-16
-0.0174555 1.29438e-16
-0.0174465 8.68392e-17
-0.0174375 4.41035e-17
-0.0174285 1.34577e-16
-0.0174195 6.23467e-16
-0.0174105 5.45174e-16
-0.0174015 5.07559e-17
-0.0173925 1.78561e-16
-0.0173835 1.61271e-16
-0.0173745 3.5394e-17
-0.0173655 3.52603e-17
-0.0173565 5.62658e-17
-0.0173475 8.08787e-17
-0.0173385 3.43675e-17
-0.0173295 1.19941e-16
-0.0173205 1.00035e-16
-0.0173115 3.35224e-17
-0.0173025 9.02176e-17
-0.0172935 1.77012e-16
-0.0172845 2.63325e-16
-0.0172755 2.16973e-16
-0.0172665 4.0252e-17
-0.0172575 1.61922e-16
-0.0172485 2.41969e-16
-0.0172395 5.07043e-17
-0.0172305 5.70301e-17
-0.0172215 3.36045e-17
-0.0172125 1.11444e-16
-0.0172035 5.85185e-17
-0.0171945 1.72785e-16
-0.0171855 4.78942e-16
-0.0171765 1.25016e-16
-0.0171675 1.3157e-16
-0.0171585 2.6032e-16
-0.0171495 4.36622e-17
-0.0171405 9.51918e-17
-0.0171315 6.67006e-17
-0.0171225 3.56268e-17
-0.0171135 3.35603e-17
-0.0171045 1.01921e-16
-0.0170955 1.99637e-16
-0.0170865 1.04597e-16
-0.0170775 3.60488e-17
-0.0170685 3.41714e-17
-0.0170595 3.36824e-17
-0.0170505 3.36172e-17
-0.0170415 3.37973e-17
-0.0170325 5.02045e-17
-0.0170235 5.59591e-17
-0.0170145 3.79467e-17
-0.0170055 1.709e-16
-0.0169965 2.18718e-16
-0.0169875 6.62261e-17
-0.0169785 4.31121e-17
-0.0169695 7.5117e-17
-0.0169605 1.05086e-16
-0.0169515 2.46286e-16
-0.0169425 4.09924e-16
-0.0169335 1.93317e-16
-0.0169245 4.99787e-17
-0.0169155 2.83891e-16
-0.0169065 1.84571e-16
-0.0168975 3.36845e-17
-0.0168885 5.88406e-17
-0.0168795 3.9612e-17
-0.0168705 3.53985e-17
-0.0168615 9.20115e-17
-0.0168525 2.40897e-16
-0.0168435 1.89388e-16
-0.0168345 3.86735e-17
-0.0168255 9.72208e-17
-0.0168165 2.0041e-16
-0.0168075 1.88061e-16
-0.0167985 9.64664e-17
-0.0167895 3.39816e-17
-0.0167805 5.73483e-17
-0.0167715 6.71904e-17
-0.0167625 5.08627e-17
-0.0167535 7.47741e-17
-0.0167445 1.76183e-16
-0.0167355 1.33096e-16
-0.0167265 6.98783e-17
-0.0167175 6.55547e-16
-0.0167085 7.52649e-16
-0.0166995 9.33389e-17
-0.0166905 2.09554e-16
-0.0166815 3.12759e-16
-0.0166725 6.27213e-17
-0.0166635 3.6059e-17
-0.0166545 4.5177e-17
-0.0166455 1.15343e-16
-0.0166365 3.54156e-17
-0.0166275 2.28019e-16
-0.0166185 4.2688e-16
-0.0166095 1.05191e-16
-0.0166005 1.16537e-16
-0.0165915 3.5084e-16
-0.0165825 2.37049e-16
-0.0165735 7.58428e-17
-0.0165645 3.74226e-17
-0.0165555 3.49288e-17
-0.0165465 3.39168e-17
-0.0165375 3.4824e-17
-0.0165285 5.8222e-17
-0.0165195 8.02867e-17
-0.0165105 4.40384e-17
-0.0165015 6.32394e-17
-0.0164925 2.12402e-16
-0.0164835 2.01879e-16
-0.0164745 5.54186e-17
-0.0164655 3.93506e-17
-0.0164565 3.85825e-17
-0.0164475 3.36135e-17
-0.0164385 3.58749e-17
-0.0164295 1.45845e-16
-0.0164205 2.77577e-16
-0.0164115 1.10414e-16
-0.0164025 5.93914e-17
-0.0163935 2.28661e-16
-0.0163845 1.59e-16
-0.0163755 3.46998e-17
-0.0163665 7.28595e-17
-0.0163575 6.82261e-17
-0.0163485 3.82982e-17
-0.0163395 1.97955e-16
-0.0163305 3.19333e-16
-0.0163215 1.26855e-16
-0.0163125 4.64066e-17
-0.0163035 1.71964e-16
-0.0162945 1.26368e-16
-0.0162855 5.8055e-17
-0.0162765 8.25295e-17
-0.0162675 1.78223e-16
-0.0162585 9.00542e-17
-0.0162495 1.06361e-16
-0.0162405 4.9239e-16
-0.0162315 3.06261e-16
-0.0162225 3.31903e-17
-0.0162135 1.64986e-16
-0.0162045 8.07719e-17
-0.0161955 3.95985e-17
-0.0161865 5.17827e-17
-0.0161775 3.26247e-17
-0.0161685 3.29077e-17
-0.0161595 7.29749e-17
-0.0161505 2.03266e-16
-0.0161415 2.02189e-16
-0.0161325 8.55735e-17
-0.0161235 3.39075e-17
-0.0161145 1.59686e-16
-0.0161055 3.8115e-16
-0.0160965 2.5734e-16
-0.0160875 3.26464e-17
-0.0160785 2.12465e-16
-0.0160695 1.28505e-16
-0.0160605 5.24346e-17
-0.0160515 1.10286e-16
-0.0160425 4.52191e-17
-0.0160335 2.44229e-16
-0.0160245 6.92951e-17
-0.0160155 1.87732e-16
-0.0160065 2.77292e-16
-0.0159975 3.69665e-17
-0.0159885 3.61281e-16
-0.0159795 1.98941e-16
-0.0159705 4.30104e-17
-0.0159615 8.24881e-17
-0.0159525 4.88177e-17
-0.0159435 1.52701e-16
-0.0159345 4.22498e-17
-0.0159255 7.92257e-17
-0.0159165 6.04328e-17
-0.0159075 3.42619e-17
-0.0158985 3.24795e-17
-0.0158895 9.67322e-17
-0.0158805 8.06821e-17
-0.0158715 3.69761e-17
-0.0158625 3.64579e-17
-0.0158535 1.76575e-16
-0.0158445 3.78895e-16
-0.0158355 3.21819e-17
-0.0158265 7.54751e-16
-0.0158175 8.3534e-16
-0.0158085 3.38607e-17
-0.0157995 4.32719e-16
-0.0157905 1.47889e-16
-0.0157815 1.43003e-16
-0.0157725 1.39626e-16
-0.0157635 1.34111e-16
-0.0157545 3.33585e-16
-0.0157455 4.88926e-17
-0.0157365 8.20209e-16
-0.0157275 6.07708e-16
-0.0157185 3.21123e-17
-0.0157095 1.75991e-16
-0.0157005 3.21596e-17
-0.0156915 1.88693e-16
-0.0156825 1.04204e-16
-0.0156735 3.43901e-17
-0.0156645 3.22147e-17
-0.0156555 1.30946e-16
-0.0156465 1.10919e-16
-0.0156375 3.88303e-17
-0.0156285 6.8152e-17
-0.0156195 5.64993e-17
-0.0156105 2.03092e-16
-0.0156015 6.22928e-17
-0.0155925 5.08247e-17
-0.0155835 3.51668e-17
-0.0155745 2.74939e-16
-0.0155655 1.80828e-16
-0.0155565 1.23356e-16
-0.0155475 4.60169e-16
-0.0155385 4.12456e-17
-0.0155295 4.94234e-16
-0.0155205 4.38832e-16
-0.0155115 5.2967e-17
-0.0155025 3.92292e-16
-0.0154935 6.66507e-17
-0.0154845 2.05434e-16
-0.0154755 1.88218e-16
-0.0154665 3.39057e-17
-0.0154575 5.24242e-17
-0.0154485 7.18264e-17
-0.0154395 1.42253e-16
-0.0154305 3.29008e-17
-0.0154215 1.43539e-16
-0.0154125 3.30603e-17
-0.0154035 2.77228e-16
-0.0153945 3.50497e-16
-0.0153855 6.38355e-17
-0.0153765 3.22774e-17
-0.0153675 5.62565e-17
-0.0153585 7.76643e-17
-0.0153495 6.42196e-17
-0.0153405 3.12452e-16
-0.0153315 8.43486e-17
-0.0153225 2.24206e-16
-0.0153135 4.34333e-16
-0.0153045 5.32539e-17
-0.0152955 1.44645e-16
-0.0152865 1.07762e-16
-0.0152775 3.14432e-17
-0.0152685 3.69327e-17
-0.0152595 1.45082e-16
-0.0152505 8.3623e-17
-0.0152415 8.54685e-17
-0.0152325 1.83746e-16
-0.0152235 3.18463e-17
-0.0152145 2.02697e-16
-0.0152055 7.8534e-17
-0.0151965 8.41257e-17
-0.0151875 7.56397e-17
-0.0151785 8.66422e-17
-0.0151695 1.57499e-16
-0.0151605 4.76769e-17
-0.0151515 3.21174e-16
-0.0151425 9.93812e-17
-0.0151335 1.16377e-16
-0.0151245 1.07952e-16
-0.0151155 1.27068e-16
-0.0151065 4.23819e-16
-0.0150975 9.38616e-17
-0.0150885 7.84401e-17
-0.0150795 4.06167e-17
-0.0150705 1.54032e-16
-0.0150615 1.72202e-16
-0.0150525 4.10681e-17
-0.0150435 1.94152e-16
-0.0150345 6.16261e-17
-0.0150255 4.92597e-17
-0.0150165 3.34632e-17
-0.0150075 6.22087e-17
-0.0149985 3.23136e-17
-0.0149895 1.50999e-16
-0.0149805 1.92733e-16
-0.0149715 3.57478e-17
-0.0149625 3.62152e-17
-0.0149535 9.14223e-17
-0.0149445 2.72046e-16
-0.0149355 5.65087e-17
-0.0149265 1.54666e-16
-0.0149175 1.22689e-16
-0.0149085 7.46251e-17
-0.0148995 1.37269e-16
-0.0148905 8.87988e-17
-0.0148815 4.80625e-16
-0.0148725 8.06474e-17
-0.0148635 3.68893e-16
-0.0148545 4.41202e-16
-0.0148455 4.73075e-17
-0.0148365 4.52986e-16
-0.0148275 9.11631e-17
-0.0148185 2.02743e-16
-0.0148095 1.66812e-16
-0.0148005 7.68511e-17
-0.0147915 1.67095e-16
-0.0147825 5.52917e-17
-0.0147735 3.23652e-16
-0.0147645 6.4485e-17
-0.0147555 1.72858e-16
-0.0147465 1.33103e-16
-0.0147375 7.61074e-17
-0.0147285 1.91828e-16
-0.0147195 3.29388e-17
-0.0147105 5.59505e-17
-0.0147015 6.40433e-17
-0.0146925 3.02324e-16
-0.0146835 8.72266e-17
-0.0146745 1.19344e-16
-0.0146655 9.45068e-17
-0.0146565 1.49039e-16
-0.0146475 3.33807e-16
-0.0146385 4.21582e-17
-0.0146295 8.31568e-16
-0.0146205 8.18329e-16
-0.0146115 8.91532e-17
-0.0146025 5.59215e-17
-0.0145935 3.22365e-17
-0.0145845 3.03644e-17
-0.0145755 1.55057e-16
-0.0145665 4.18043e-16
-0.0145575 1.15419e-16
-0.0145485 8.77509e-17
-0.0145395 7.05198e-17
-0.0145305 1.64087e-16
-0.0145215 4.35454e-16
-0.0145125 8.93414e-17
-0.0145035 6.78776e-17
-0.0144945 3.27835e-17
-0.0144855 1.50932e-16
-0.0144765 1.12386e-16
-0.0144675 6.11292e-17
-0.0144585 1.1444e-16
-0.0144495 6.33315e-17
-0.0144405 3.2399e-16
-0.0144315 7.0951e-17
-0.0144225 1.88426e-16
-0.0144135 2.21164e-16
-0.0144045 3.60924e-17
-0.0143955 1.75255e-16
-0.0143865 4.7228e-17
-0.0143775 4.98448e-17
-0.0143685 3.09892e-17
-0.0143595 1.20448e-16
-0.0143505 4.43685e-17
-0.0143415 1.0425e-16
-0.0143325 6.15306e-17
-0.0143235 2.00356e-16
-0.0143145 4.97107e-16
-0.0143055 6.81902e-17
-0.0142965 1.87354e-16
-0.0142875 1.08238e-16
-0.0142785 1.36276e-16
-0.0142695 3.09966e-16
-0.0142605 4.58374e-17
-0.0142515 4.68217e-17
-0.0142425 7.78826e-17
-0.0142335 3.56119e-16
-0.0142245 6.53831e-17
-0.0142155 3.3818e-16
-0.0142065 4.15929e-16
-0.0141975 5.22882e-17
-0.0141885 5.31012e-16
-0.0141795 9.13894e-17
-0.0141705 4.17848e-16
-0.0141615 5.66953e-16
-0.0141525 3.16385e-17
-0.0141435 5.16822e-16
-0.0141345 3.01916e-16
-0.0141255 2.94609e-17
-0.0141165 3.27771e-17
-0.0141075 1.43281e-16
-0.0140985 3.08267e-16
-0.0140895 1.06985e-16
-0.0140805 3.12014e-17
-0.0140715 5.77851e-17
-0.0140625 1.74125e-16
-0.0140535 1.11188e-16
-0.0140445 2.93051e-17
-0.0140355 4.07155e-17
-0.0140265 2.93278e-17
-0.0140175 2.9272e-17
-0.0140085 3.80142e-17
-0.0139995 2.98155e-17
-0.0139905 2.33969e-16
-0.0139815 6.1205e-16
-0.0139725 3.44963e-16
-0.0139635 3.21198e-17
-0.0139545 8.87331e-17
-0.0139455 7.56052e-17
-0.0139365 6.28248e-17
-0.0139275 1.22568e-16
-0.0139185 1.3807e-16
-0.0139095 3.62663e-17
-0.0139005 5.49458e-17
-0.0138915 4.13401e-17
-0.0138825 3.07347e-17
-0.0138735 4.0217e-17
-0.0138645 2.60235e-16
-0.0138555 3.43554e-16
-0.0138465 5.7513e-17
-0.0138375 6.43641e-17
-0.0138285 2.98476e-17
-0.0138195 1.68931e-16
-0.0138105 1.91551e-16
-0.0138015 2.89277e-17
-0.0137925 7.45251e-17
-0.0137835 2.97481e-17
-0.0137745 1.05429e-16
-0.0137655 2.89997e-17
-0.0137565 2.44742e-16
-0.0137475 2.42198e-16
-0.0137385 3.53439e-17
-0.0137295 2.20107e-16
-0.0137205 4.51367e-17
-0.0137115 1.72995e-16
-0.0137025 1.56978e-16
-0.0136935 4.92899e-17
-0.0136845 2.08418e-16
-0.0136755 6.60854e-17
-0.0136665 2.92134e-17
-0.0136575 9.16717e-17
-0.0136485 5.01467e-16
-0.0136395 3.68087e-16
-0.0136305 3.62968e-17
-0.0136215 3.67674e-16
-0.0136125 1.68223e-16
-0.0136035 5.96294e-17
-0.0135945 1.61454e-16
-0.0135855 3.28226e-17
-0.0135765 7.3201e-17
-0.0135675 4.00147e-17
-0.0135585 4.84619e-17
-0.0135495 4.15239e-17
-0.0135405 6.70163e-17
-0.0135315 1.90903e-16
-0.0135225 8.12587e-17
-0.0135135 5.97008e-17
-0.0135045 2.40303e-16
-0.0134955 1.97867e-16
-0.0134865 4.12548e-17
-0.0134775 6.09741e-17
-0.0134685 9.99038e-17
-0.0134595 4.72795e-17
-0.0134505 2.86226e-17
-0.0134415 3.02103e-17
-0.0134325 2.84499e-17
-0.0134235 2.89615e-17
-0.0134145 1.00392e-16
-0.0134055 2.66107e-16
-0.0133965 2.27891e-16
-0.0133875 6.3377e-17
-0.0133785 2.81407e-17
-0.0133695 2.79065e-17
-0.0133605 3.98156e-17
-0.0133515 4.62089e-17
-0.0133425 3.09954e-17
-0.0133335 2.99987e-17
-0.0133245 5.42377e-17
-0.0133155 1.2745e-16
-0.0133065 1.94159e-16
-0.0132975 1.05465e-16
-0.0132885 2.9873e-17
-0.0132795 1.28736e-16
-0.0132705 1.51158e-16
-0.0132615 8.60568e-17
-0.0132525 6.06183e-17
-0.0132435 5.62293e-17
-0.0132345 3.0523e-17
-0.0132255 5.48499e-17
-0.0132165 1.07607e-16
-0.0132075 5.68328e-17
-0.0131985 2.94808e-17
-0.0131895 6.28143e-17
-0.0131805 1.04051e-16
-0.0131715 1.90525e-16
-0.0131625 2.60728e-16
-0.0131535 1.38128e-16
-0.0131445 2.78112e-17
-0.0131355 3.89644e-17
-0.0131265 4.77024e-17
-0.0131175 2.81123e-16
-0.0131085 3.21809e-16
-0.0130995 6.10416e-17
-0.0130905 8.23452e-17
-0.0130815 1.78973e-16
-0.0130725 1.01757e-16
-0.0130635 2.99396e-17
-0.0130545 5.22604e-17
-0.0130455 1.08137e-16
-0.0130365 8.45828e-17
-0.0130275 3.09803e-17
-0.0130185 2.72509e-17
-0.0130095 5.51911e-17
-0.0130005 1.57298e-16
-0.0129915 6.3922e-17
-0.0129825 1.01028e-16
-0.0129735 2.697e-16
-0.0129645 5.87291e-17
-0.0129555 8.18583e-17
-0.0129465 4.41959e-17
-0.0129375 1.75353e-16
-0.0129285 3.60828e-16
-0.0129195 3.56757e-17
-0.0129105 2.94529e-16
-0.0129015 3.47925e-16
-0.0128925 6.0749e-17
-0.0128835 3.35749e-17
-0.0128745 2.62074e-16
-0.0128655 6.71549e-16
-0.0128565 2.81103e-16
-0.0128475 4.29423e-17
-0.0128385 2.11556e-16
-0.0128295 9.98457e-17
-0.0128205 3.43177e-17
-0.0128115 4.5904e-17
-0.0128025 6.2435e-17
-0.0127935 2.80211e-17
-0.0127845 3.58229e-17
-0.0127755 2.65919e-17
-0.0127665 3.51949e-17
-0.0127575 6.6791e-17
-0.0127485 4.9661e-16
-0.0127395 6.62478e-16
-0.0127305 2.25986e-16
-0.0127215 6.49157e-17
-0.0127125 1.83677e-16
-0.0127035 3.90687e-16
-0.0126945 9.88338e-17
-0.0126855 1.18627e-16
-0.0126765 1.12043e-16
-0.0126675 1.94471e-16
-0.0126585 8.90964e-16
-0.0126495 4.03151e-16
-0.0126405 2.73574e-17
-0.0126315 3.55641e-17
-0.0126225 2.06379e-16
-0.0126135 4.81758e-16
-0.0126045 9.0487e-17
-0.0125955 8.35612e-17
-0.0125865 6.48227e-17
-0.0125775 3.18277e-17
-0.0125685 3.07352e-17
-0.0125595 3.0277e-16
-0.0125505 4.0714e-16
-0.0125415 7.89377e-17
-0.0125325 2.69585e-17
-0.0125235 1.43622e-16
-0.0125145 2.88011e-16
-0.0125055 3.18849e-17
-0.0124965 7.89016e-16
-0.0124875 6.77764e-16
-0.0124785 3.67003e-17
-0.0124695 4.60299e-16
-0.0124605 5.28022e-17
-0.0124515 3.50144e-16
-0.0124425 2.41574e-16
-0.0124335 6.84545e-17
-0.0124245 1.09706e-16
-0.0124155 1.98e-16
-0.0124065 6.64638e-16
-0.0123975 5.20457e-17
-0.0123885 4.28732e-16
-0.0123795 1.89522e-16
-0.0123705 3.72515e-16
-0.0123615 1.05943e-15
-0.0123525 2.2003e-16
-0.0123435 4.43604e-17
-0.0123345 3.15858e-17
-0.0123255 2.34374e-16
-0.0123165 2.75775e-17
-0.0123075 6.33267e-16
-0.0122985 6.49228e-16
-0.0122895 5.67139e-17
-0.0122805 7.47971e-16
-0.0122715 1.67745e-16
-0.0122625 1.95672e-16
-0.0122535 1.07799e-16
-0.0122445 3.06576e-16
-0.0122355 6.03921e-16
-0.0122265 3.03916e-17
-0.0122175 2.15218e-16
-0.0122085 2.53604e-17
-0.0121995 4.67163e-16
-0.0121905 2.29978e-16
-0.0121815 1.13253e-16
-0.0121725 1.92528e-16
-0.0121635 7.50823e-17
-0.0121545 2.2465e-16
-0.0121455 8.8973e-17
-0.0121365 6.33232e-16
-0.0121275 3.11734e-17
-0.0121185 1.19743e-15
-0.0121095 1.19972e-15
-0.0121005 4.36851e-17
-0.0120915 8.27782e-16
-0.0120825 6.57161e-17
-0.0120735 6.68678e-16
-0.0120645 3.63253e-16
-0.0120555 2.72672e-16
-0.0120465 6.30166e-16
-0.0120375 4.55565e-17
-0.0120285 7.07763e-16
-0.0120195 6.64301e-17
-0.0120105 6.79096e-16
-0.0120015 6.01841e-16
-0.0119925 4.98591e-17
-0.0119835 3.06998e-16
-0.0119745 2.46944e-17
-0.0119655 1.0683e-16
-0.0119565 2.04806e-16
-0.0119475 1.26181e-15
-0.0119385 3.85819e-16
-0.0119295 2.63271e-16
-0.0119205 3.441e-16
-0.0119115 2.5187e-16
-0.0119025 1.00074e-15
-0.0118935 2.51525e-17
-0.0118845 1.31845e-15
-0.0118755 7.46962e-16
-0.0118665 2.70148e-16
-0.0118575 1.10785e-15
-0.0118485 6.05409e-17
-0.0118395 3.92797e-16
-0.0118305 3.82523e-17
-0.0118215 7.57179e-16
-0.0118125 6.4715e-16
-0.0118035 8.83121e-17
-0.0117945 6.76946e-16
-0.0117855 1.07146e-16
-0.0117765 7.31747e-17
-0.0117675 7.28105e-17
-0.0117585 8.72156e-16
-0.0117495 4.84096e-16
-0.0117405 1.14949e-16
-0.0117315 5.39164e-16
-0.0117225 5.34035e-17
-0.0117135 1.0149e-16
-0.0117045 6.0822e-17
-0.0116955 8.99625e-16
-0.0116865 8.71644e-16
-0.0116775 1.39196e-16
-0.0116685 6.37008e-17
-0.0116595 4.36669e-16
-0.0116505 5.55032e-16
-0.0116415 2.38578e-17
-0.0116325 4.60115e-16
-0.0116235 2.1021e-16
-0.0116145 8.48435e-17
-0.0116055 1.49652e-16
-0.0115965 3.46399e-17
-0.0115875 6.56446e-17
-0.0115785 1.22164e-16
-0.0115695 3.76298e-16
-0.0115605 3.93645e-17
-0.0115515 1.00591e-16
-0.0115425 9.85079e-17
-0.0115335 1.4221e-15
-0.0115245 1.179e-15
-0.0115155 3.59681e-17
-0.0115065 8.29452e-16
-0.0114975 1.70997e-16
-0.0114885 2.02836e-16
-0.0114795 4.93518e-17
-0.0114705 6.61734e-16
-0.0114615 8.42001e-16
-0.0114525 6.07941e-17
-0.0114435 1.15774e-15
-0.0114345 3.96686e-16
-0.0114255 1.33826e-16
-0.0114165 1.15948e-16
-0.0114075 4.02767e-16
-0.0113985 1.11863e-15
-0.0113895 2.1634e-16
-0.0113805 6.86214e-17
-0.0113715 2.74412e-17
-0.0113625 1.09011e-16
-0.0113535 2.47199e-17
-0.0113445 5.11767e-16
-0.0113355 3.61512e-16
-0.0113265 1.08556e-16
-0.0113175 5.23706e-16
-0.0113085 4.33029e-17
-0.0112995 1.54721e-16
-0.0112905 4.24631e-17
-0.0112815 8.77207e-16
-0.0112725 4.41567e-16
-0.0112635 2.45922e-16
-0.0112545 6.99687e-16
-0.0112455 5.84169e-17
-0.0112365 1.33401e-15
-0.0112275 4.54095e-16
-0.0112185 3.7512e-16
-0.0112095 8.48692e-16
-0.0112005 3.32815e-17
-0.0111915 1.49447e-16
-0.0111825 8.1387e-17
-0.0111735 5.29581e-16
-0.0111645 3.57992e-17
-0.0111555 1.99027e-15
-0.0111465 2.08538e-15
-0.0111375 6.90215e-17
-0.0111285 2.65234e-16
-0.0111195 6.91761e-17
-0.0111105 1.20565e-15
-0.0111015 5.20178e-16
-0.0110925 1.12247e-16
-0.0110835 9.65809e-17
-0.0110745 6.58104e-16
-0.0110655 1.28796e-15
-0.0110565 4.88199e-17
-0.0110475 2.46855e-15
-0.0110385 1.61989e-15
-0.0110295 1.06537e-16
-0.0110205 1.24863e-15
-0.0110115 2.69725e-16
-0.0110025 5.49137e-17
-0.0109935 5.7577e-17
-0.0109845 6.65513e-16
-0.0109755 1.45071e-16
-0.0109665 6.48881e-16
-0.0109575 1.13938e-15
-0.0109485 2.48483e-17
-0.0109395 7.13895e-16
-0.0109305 2.67897e-16
-0.0109215 1.58567e-16
-0.0109125 2.70782e-16
-0.0109035 2.24016e-17
-0.0108945 3.8362e-17
-0.0108855 1.50216e-16
-0.0108765 1.65675e-16
-0.0108675 3.29815e-16
-0.0108585 1.8877e-15
-0.0108495 8.40762e-16
-0.0108405 1.001e-16
-0.0108315 4.5447e-16
-0.0108225 3.53486e-17
-0.0108135 6.74329e-16
-0.0108045 2.60319e-16
-0.0107955 4.78794e-17
-0.0107865 2.40705e-17
-0.0107775 4.00113e-16
-0.0107685 5.2321e-16
-0.0107595 2.34346e-17
-0.0107505 4.5851e-16
-0.0107415 1.85657e-16
-0.0107325 4.98438e-17
-0.0107235 6.17576e-17
-0.0107145 4.20384e-17
-0.0107055 2.58586e-17
-0.0106965 2.50964e-16
-0.0106875 4.94215e-16
-0.0106785 6.24667e-17
-0.0106695 8.84303e-17
-0.0106605 2.135e-17
-0.0106515 2.7686e-16
-0.0106425 2.044e-16
-0.0106335 7.82253e-17
-0.0106245 4.26107e-16
-0.0106155 1.71705e-16
-0.0106065 3.46508e-17
-0.0105975 1.53308e-16
-0.0105885 4.62831e-16
-0.0105795 9.26979e-17
-0.0105705 4.23657e-16
-0.0105615 1.22684e-15
-0.0105525 5.91761e-16
-0.0105435 9.19632e-17
-0.0105345 9.16652e-17
-0.0105255 2.63583e-16
-0.0105165 1.68079e-16
-0.0105075 2.43927e-17
-0.0104985 2.80525e-17
-0.0104895 2.01702e-16
-0.0104805 1.6848e-16
-0.0104715 1.06364e-16
-0.0104625 8.14284e-16
-0.0104535 4.76461e-16
-0.0104445 2.33552e-17
-0.0104355 1.85998e-16
-0.0104265 4.81235e-17
-0.0104175 2.07089e-17
-0.0104085 9.48925e-17
-0.0103995 3.82185e-16
-0.0103905 1.99185e-16
-0.0103815 2.03602e-17
-0.0103725 2.22325e-17
-0.0103635 1.29606e-16
-0.0103545 2.20361e-16
-0.0103455 2.02441e-17
-0.0103365 2.80906e-16
-0.0103275 2.48432e-16
-0.0103185 3.48379e-17
-0.0103095 2.20706e-17
-0.0103005 1.05164e-16
-0.0102915 1.27809e-16
-0.0102825 2.40949e-17
-0.0102735 2.06966e-16
-0.0102645 1.62151e-16
-0.0102555 5.38204e-17
-0.0102465 1.44622e-16
-0.0102375 6.27644e-16
-0.0102285 8.15152e-16
-0.0102195 3.00559e-16
-0.0102105 5.47528e-17
-0.0102015 7.93197e-17
-0.0101925 1.82652e-16
-0.0101835 6.14684e-17
-0.0101745 6.16294e-17
-0.0101655 8.64029e-17
-0.0101565 4.07547e-17
-0.0101475 2.04681e-16
-0.0101385 4.0655e-17
-0.0101295 1.74612e-16
-0.0101205 3.21642e-16
-0.0101115 6.77253e-17
-0.0101025 3.15256e-17
-0.0100935 2.84696e-17
-0.0100845 2.14215e-17
-0.0100755 2.29408e-17
-0.0100665 1.64003e-16
-0.0100575 3.42913e-16
-0.0100485 2.12748e-16
-0.0100395 4.20543e-17
-0.0100305 2.27633e-17
-0.0100215 3.42696e-17
-0.0100125 3.1788e-17
-0.0100035 3.12151e-17
-0.0099945 4.34381e-17
-0.0099855 7.26651e-17
-0.0099765 7.97739e-17
-0.0099675 3.62561e-17
-0.0099585 2.0626e-17
-0.0099495 3.59153e-17
-0.0099405 5.30228e-17
-0.0099315 1.97833e-16
-0.0099225 7.75593e-16
-0.0099135 1.35519e-15
-0.0099045 8.84807e-16
-0.0098955 1.8087e-16
-0.0098865 4.58623e-17
-0.0098775 1.88736e-16
-0.0098685 4.40576e-16
-0.0098595 1.61325e-16
-0.0098505 4.75444e-17
-0.0098415 1.32484e-16
-0.0098325 1.87323e-17
-0.0098235 9.12609e-17
-0.0098145 1.87491e-17
-0.0098055 2.60115e-16
-0.0097965 2.78914e-16
-0.0097875 1.85579e-17
-0.0097785 2.39181e-16
-0.0097695 2.6186e-16
-0.0097605 8.92362e-17
-0.0097515 3.83508e-17
-0.0097425 3.8273e-17
-0.0097335 3.83944e-17
-0.0097245 7.15293e-17
-0.0097155 2.74388e-16
-0.0097065 4.76775e-16
-0.0096975 1.2379e-16
-0.0096885 1.82575e-16
-0.0096795 6.631e-16
-0.0096705 2.55823e-16
-0.0096615 2.07487e-17
-0.0096525 3.29299e-17
-0.0096435 6.20479e-17
-0.0096345 1.0473e-16
-0.0096255 2.40237e-17
-0.0096165 1.53467e-16
-0.0096075 4.3145e-17
-0.0095985 5.00029e-17
-0.0095895 2.00943e-17
-0.0095805 2.25642e-16
-0.0095715 4.7761e-16
-0.0095625 1.78079e-16
-0.0095535 2.85803e-17
-0.0095445 4.55046e-17
-0.0095355 1.07335e-16
-0.0095265 2.64762e-17
-0.0095175 8.76856e-17
-0.0095085 1.06166e-16
-0.0094995 2.01878e-17
-0.0094905 1.81541e-17
-0.0094815 1.10986e-16
-0.0094725 1.59343e-16
-0.0094635 1.95546e-17
-0.0094545 2.11101e-16
-0.0094455 8.7624e-17
-0.0094365 3.69652e-17
-0.0094275 1.7554e-17
-0.0094185 4.15165e-16
-0.0094095 8.31138e-16
-0.0094005 2.10564e-16
-0.0093915 1.74328e-17
-0.0093825 9.85496e-17
-0.0093735 6.2937e-16
-0.0093645 2.44091e-16
-0.0093555 2.4676e-16
-0.0093465 6.73231e-16
-0.0093375 1.73932e-17
-0.0093285 7.86305e-16
-0.0093195 3.86642e-16
-0.0093105 9.9509e-17
-0.0093015 1.38534e-16
-0.0092925 4.13148e-16
-0.0092835 1.57935e-15
-0.0092745 3.68164e-16
-0.0092655 1.7432e-16
-0.0092565 1.08212e-16
-0.0092475 4.83559e-16
-0.0092385 1.25212e-15
-0.0092295 2.29936e-16
-0.0092205 5.23954e-17
-0.0092115 2.37456e-17
-0.0092025 4.43184e-16
-0.0091935 2.12914e-16
-0.0091845 1.36216e-16
-0.0091755 3.69753e-16
-0.0091665 2.27101e-17
-0.0091575 7.03002e-17
-0.0091485 5.24577e-17
-0.0091395 3.06451e-16
-0.0091305 2.40082e-17
-0.0091215 2.33324e-16
-0.0091125 1.70731e-17
-0.0091035 9.71758e-16
-0.0090945 9.16572e-16
-0.0090855 2.04741e-16
-0.0090765 2.27559e-15
-0.0090675 8.10226e-16
-0.0090585 2.20447e-16
-0.0090495 3.87229e-16
-0.0090405 2.72088e-16
-0.0090315 1.19542e-15
-0.0090225 4.79823e-17
-0.0090135 8.78133e-16
-0.0090045 5.29612e-16
-0.0089955 9.96911e-17
-0.0089865 2.28038e-16
-0.0089775 1.40752e-16
-0.0089685 4.6029e-16
-0.0089595 5.15501e-17
-0.0089505 8.99052e-16
-0.0089415 1.71881e-16
-0.0089325 3.80387e-16
-0.0089235 2.04987e-16
-0.0089145 5.69922e-16
-0.0089055 1.4348e-15
-0.0088965 9.84218e-17
-0.0088875 2.39572e-16
-0.0088785 5.26913e-17
-0.0088695 1.74121e-15
-0.0088605 1.34095e-15
-0.0088515 2.53077e-17
-0.0088425 3.60677e-16
-0.0088335 1.10859e-16
-0.0088245 1.11323e-15
-0.0088155 1.51823e-16
-0.0088065 5.44509e-16
-0.0087975 3.76074e-16
-0.0087885 1.64904e-16
-0.0087795 2.21814e-16
-0.0087705 4.41664e-16
-0.0087615 1.24805e-15
-0.0087525 2.58413e-17
-0.0087435 1.90785e-15
-0.0087345 6.39426e-16
-0.0087255 7.46242e-16
-0.0087165 1.13559e-15
-0.0087075 4.17191e-16
-0.0086985 3.3985e-15
-0.0086895 6.99697e-16
-0.0086805 8.60311e-16
-0.0086715 8.90251e-16
-0.0086625 3.61789e-16
-0.0086535 1.56212e-15
-0.0086445 2.87282e-17
-0.0086355 9.37021e-16
-0.0086265 1.77711e-16
-0.0086175 4.6515e-16
-0.0086085 1.46684e-16
-0.0085995 7.67879e-16
-0.0085905 8.07122e-16
-0.0085815 4.11332e-16
-0.0085725 2.34526e-15
-0.0085635 2.20095e-16
-0.0085545 8.96105e-16
-0.0085455 2.25042e-16
-0.0085365 1.54753e-15
-0.0085275 2.64988e-15
-0.0085185 5.06529e-17
-0.0085095 6.06643e-16
-0.0085005 9.2544e-17
-0.0084915 2.90704e-15
-0.0084825 1.49361e-15
-0.0084735 3.33816e-16
-0.0084645 1.17463e-15
-0.0084555 7.30652e-17
-0.0084465 1.2766e-15
-0.0084375 1.65708e-17
-0.0084285 1.98917e-15
-0.0084195 1.09516e-15
-0.0084105 2.34649e-16
-0.0084015 4.55634e-16
-0.0083925 6.16785e-16
-0.0083835 2.14558e-15
-0.0083745 1.55944e-17
-0.0083655 2.56351e-15
-0.0083565 1.29153e-15
-0.0083475 3.18395e-16
-0.0083385 5.10862e-16
-0.0083295 1.06956e-15
-0.0083205 4.04053e-15
-0.0083115 4.0734e-16
-0.0083025 1.47529e-15
-0.0082935 9.62758e-16
-0.0082845 4.84961e-16
-0.0082755 1.1558e-15
-0.0082665 1.53967e-16
-0.0082575 1.65221e-15
-0.0082485 4.57798e-17
-0.0082395 1.40638e-15
-0.0082305 3.8385e-16
-0.0082215 1.03936e-15
-0.0082125 1.15798e-15
-0.0082035 4.59425e-16
-0.0081945 2.643e-15
-0.0081855 1.77165e-16
-0.0081765 9.85924e-16
-0.0081675 6.92652e-17
-0.0081585 2.81683e-15
-0.0081495 3.76634e-15
-0.0081405 5.95835e-17
-0.0081315 8.2197e-16
-0.0081225 2.17441e-17
-0.0081135 1.75851e-15
-0.0081045 3.84767e-16
-0.0080955 1.13338e-15
-0.0080865 1.12675e-15
-0.0080775 4.9733e-16
-0.0080685 2.19053e-15
-0.0080595 1.73777e-17
-0.0080505 3.10683e-15
-0.0080415 1.4735e-15
-0.0080325 3.87405e-16
-0.0080235 8.43432e-16
-0.0080145 3.69851e-16
-0.0080055 1.80248e-15
-0.0079965 1.4221e-17
-0.0079875 2.18637e-15
-0.0079785 6.17375e-16
-0.0079695 9.45417e-16
-0.0079605 9.6609e-16
-0.0079515 8.57228e-16
-0.0079425 3.95487e-15
-0.0079335 5.44364e-16
-0.0079245 8.15884e-16
-0.0079155 3.01846e-16
-0.0079065 1.05669e-15
-0.0078975 1.56196e-15
-0.0078885 4.24836e-17
-0.0078795 9.14066e-16
-0.0078705 1.79859e-17
-0.0078615 1.23176e-15
-0.0078525 1.22026e-16
-0.0078435 1.3163e-15
-0.0078345 9.72065e-16
-0.0078255 4.4974e-16
-0.0078165 1.73563e-15
-0.0078075 1.57627e-17
-0.0077985 1.01976e-15
-0.0077895 1.30381e-17
-0.0077805 3.13557e-15
-0.0077715 2.9188e-15
-0.0077625 1.30602e-17
-0.0077535 5.80229e-16
-0.0077445 3.66788e-16
-0.0077355 3.77462e-15
-0.0077265 1.53221e-15
-0.0077175 2.21226e-16
-0.0077085 5.02092e-16
-0.0076995 3.21285e-16
-0.0076905 1.15739e-15
-0.0076815 1.63337e-17
-0.0076725 1.06367e-15
-0.0076635 8.4988e-17
-0.0076545 9.21422e-16
-0.0076455 3.22912e-16
-0.0076365 1.00845e-15
-0.0076275 1.75098e-15
-0.0076185 4.77476e-17
-0.0076095 1.69877e-15
-0.0076005 1.3555e-16
-0.0075915 1.39701e-15
-0.0075825 8.26596e-16
-0.0075735 7.01542e-16
-0.0075645 2.26582e-15
-0.0075555 8.04363e-17
-0.0075465 7.42089e-16
-0.0075375 3.03537e-17
-0.0075285 1.46694e-15
-0.0075195 1.04716e-15
-0.0075105 1.81591e-16
-0.0075015 7.34002e-16
-0.0074925 1.41301e-16
-0.0074835 1.70365e-15
-0.0074745 2.86848e-16
-0.0074655 4.97972e-16
-0.0074565 1.94481e-16
-0.0074475 7.17084e-16
-0.0074385 9.05709e-16
-0.0074295 2.53636e-16
-0.0074205 1.90945e-15
-0.0074115 1.3053e-16
-0.0074025 1.20161e-15
-0.0073935 6.31971e-16
-0.0073845 6.30157e-16
-0.0073755 1.64834e-15
-0.0073665 1.20387e-17
-0.0073575 1.53292e-15
-0.0073485 7.2158e-16
-0.0073395 2.72499e-17
-0.0073305 1.72477e-17
-0.0073215 1.20455e-15
-0.0073125 1.27053e-15
-0.0073035 2.27545e-17
-0.0072945 6.52835e-16
-0.0072855 1.99618e-17
-0.0072765 1.38113e-15
-0.0072675 4.68984e-16
-0.0072585 6.56663e-16
-0.0072495 1.49995e-15
-0.0072405 3.55164e-17
-0.0072315 4.02031e-16
-0.0072225 1.47815e-17
-0.0072135 1.08056e-15
-0.0072045 4.68574e-16
-0.0071955 3.04914e-16
-0.0071865 6.73103e-16
-0.0071775 4.3975e-17
-0.0071685 6.38071e-16
-0.0071595 1.2622e-17
-0.0071505 1.35185e-15
-0.0071415 9.84644e-16
-0.0071325 2.03814e-17
-0.0071235 1.76853e-16
-0.0071145 2.27208e-16
-0.0071055 1.26949e-15
-0.0070965 3.37035e-16
-0.0070875 1.03329e-16
-0.0070785 4.92034e-17
-0.0070695 4.04299e-16
-0.0070605 7.06815e-16
-0.0070515 2.39955e-17
-0.0070425 2.03817e-16
-0.0070335 2.13351e-17
-0.0070245 2.01505e-16
-0.0070155 1.02391e-16
-0.0070065 3.92681e-17
-0.0069975 1.87984e-17
-0.0069885 1.9901e-16
-0.0069795 2.12267e-16
-0.0069705 6.39239e-17
-0.0069615 3.58993e-16
-0.0069525 1.22612e-17
-0.0069435 7.60549e-16
-0.0069345 5.67068e-16
-0.0069255 1.83941e-17
-0.0069165 1.48104e-16
-0.0069075 1.17174e-16
-0.0068985 1.00837e-15
-0.0068895 5.68676e-16
-0.0068805 1.5789e-17
-0.0068715 1.11085e-17
-0.0068625 3.73967e-16
-0.0068535 6.83356e-16
-0.0068445 7.92841e-17
-0.0068355 1.16327e-16
-0.0068265 5.08775e-17
-0.0068175 1.03875e-16
-0.0068085 1.53937e-16
-0.0067995 1.65284e-17
-0.0067905 2.11375e-16
-0.0067815 1.873e-16
-0.0067725 1.50631e-16
-0.0067635 3.66933e-16
-0.0067545 5.4946e-16
-0.0067455 1.52574e-16
-0.0067365 4.39154e-17
-0.0067275 9.18419e-17
-0.0067185 3.824e-17
-0.0067095 3.0667e-16
-0.0067005 1.06896e-16
-0.0066915 1.20134e-16
-0.0066825 6.54034e-16
-0.0066735 6.88179e-16
-0.0066645 3.21518e-16
-0.0066555 7.82229e-17
-0.0066465 1.45035e-17
-0.0066375 1.15368e-17
-0.0066285 3.84029e-17
-0.0066195 1.03212e-16
-0.0066105 1.06565e-16
-0.0066015 6.84025e-17
-0.0065925 6.8148e-17
-0.0065835 7.21459e-17
-0.0065745 1.39702e-17
-0.0065655 7.17074e-17
-0.0065565 1.11461e-16
-0.0065475 1.04437e-17
-0.0065385 1.95444e-16
-0.0065295 1.91055e-16
-0.0065205 2.24025e-17
-0.0065115 9.93801e-18
-0.0065025 2.95182e-17
-0.0064935 6.98642e-17
-0.0064845 2.27905e-17
-0.0064755 2.25816e-17
-0.0064665 2.61956e-16
-0.0064575 7.22765e-16
-0.0064485 3.5098e-16
-0.0064395 9.2599e-18
-0.0064305 9.23644e-18
-0.0064215 5.45546e-16
-0.0064125 1.7519e-15
-0.0064035 9.73292e-16
-0.0063945 4.22173e-17
-0.0063855 1.31146e-17
-0.0063765 1.33437e-16
-0.0063675 3.71511e-16
-0.0063585 9.72765e-17
-0.0063495 1.23105e-17
-0.0063405 1.56151e-16
-0.0063315 5.20541e-16
-0.0063225 9.70694e-17
-0.0063135 2.58343e-16
-0.0063045 3.83428e-16
-0.0062955 1.32443e-17
-0.0062865 2.09476e-16
-0.0062775 1.59421e-17
-0.0062685 4.77538e-16
-0.0062595 1.36152e-16
-0.0062505 2.05905e-16
-0.0062415 2.69268e-16
-0.0062325 3.67693e-17
-0.0062235 1.27761e-16
-0.0062145 2.02784e-16
-0.0062055 1.00786e-15
-0.0061965 1.29231e-16
-0.0061875 3.32021e-16
-0.0061785 4.31432e-17
-0.0061695 1.35426e-15
-0.0061605 2.34888e-15
-0.0061515 9.18087e-17
-0.0061425 6.55601e-16
-0.0061335 4.84175e-17
-0.0061245 1.06274e-15
-0.0061155 6.14458e-16
-0.0061065 5.75409e-16
-0.0060975 1.49137e-15
-0.0060885 1.08046e-16
-0.0060795 3.1175e-15
-0.0060705 1.03016e-15
-0.0060615 8.52162e-16
-0.0060525 1.82965e-15
-0.0060435 1.9284e-17
-0.0060345 1.22616e-15
-0.0060255 6.33954e-17
-0.0060165 8.10219e-16
-0.0060075 1.16364e-16
-0.0059985 1.18673e-15
-0.0059895 1.07208e-15
-0.0059805 2.9485e-16
-0.0059715 1.42307e-15
-0.0059625 4.96361e-17
-0.0059535 2.69597e-15
-0.0059445 1.03367e-15
-0.0059355 4.01461e-16
-0.0059265 5.06848e-16
-0.0059175 7.79664e-16
-0.0059085 2.67781e-15
-0.0058995 1.70727e-16
-0.0058905 7.13521e-16
-0.0058815 3.54409e-17
-0.0058725 1.50486e-15
-0.0058635 8.86169e-16
-0.0058545 4.90606e-16
-0.0058455 1.09052e-15
-0.0058365 3.80373e-16
-0.0058275 3.01273e-15
-0.0058185 1.99576e-16
-0.0058095 2.20439e-15
-0.0058005 1.57373e-15
-0.0057915 2.97002e-16
-0.0057825 6.904e-16
-0.0057735 1.06155e-15
-0.0057645 4.32872e-15
-0.0057555 1.74262e-16
-0.0057465 2.76191e-15
-0.0057375 9.74724e-16
-0.0057285 2.08005e-15
-0.0057195 3.32464e-15
-0.0057105 3.52133e-16
-0.0057015 4.8043e-15
-0.0056925 2.73948e-16
-0.0056835 3.50057e-15
-0.0056745 1.42867e-15
-0.0056655 2.86387e-15
-0.0056565 6.17934e-15
-0.0056475 7.35988e-18
-0.0056385 3.72132e-15
-0.0056295 1.06501e-16
-0.0056205 6.03865e-15
-0.0056115 5.03286e-15
-0.0056025 3.04339e-16
-0.0055935 2.76602e-15
-0.0055845 1.65322e-16
-0.0055755 4.72549e-15
-0.0055665 5.56577e-16
-0.0055575 2.90864e-15
-0.0055485 1.81619e-15
-0.0055395 1.51062e-15
-0.0055305 3.75693e-15
-0.0055215 1.1905e-16
-0.0055125 3.83507e-15
-0.0055035 8.77438e-17
-0.0054945 4.30582e-15
-0.0054855 1.61475e-15
-0.0054765 2.86803e-15
-0.0054675 5.60119e-15
-0.0054585 7.83587e-17
-0.0054495 4.88902e-15
-0.0054405 4.3982e-16
-0.0054315 2.75682e-15
-0.0054225 7.08508e-16
-0.0054135 3.85079e-15
-0.0054045 5.16528e-15
-0.0053955 3.38063e-16
-0.0053865 4.80457e-15
-0.0053775 1.92209e-17
-0.0053685 8.94012e-15
-0.0053595 4.2996e-15
-0.0053505 1.71094e-15
-0.0053415 4.44348e-15
-0.0053325 4.97534e-16
-0.0053235 6.93456e-15
-0.0053145 4.98762e-16
-0.0053055 3.88242e-15
-0.0052965 1.23581e-15
-0.0052875 3.82429e-15
-0.0052785 5.52542e-15
-0.0052695 4.57704e-16
-0.0052605 6.21303e-15
-0.0052515 1.07662e-16
-0.0052425 5.80401e-15
-0.0052335 1.8174e-15
-0.0052245 3.87216e-15
-0.0052155 6.18493e-15
-0.0052065 2.43073e-16
-0.0051975 5.1104e-15
-0.0051885 2.51091e-17
-0.0051795 5.56474e-15
-0.0051705 1.20343e-15
-0.0051615 4.22517e-15
-0.0051525 4.27844e-15
-0.0051435 1.62509e-15
-0.0051345 8.14921e-15
-0.0051255 2.08239e-17
-0.0051165 8.39893e-15
-0.0051075 3.19938e-15
-0.0050985 2.11122e-15
-0.0050895 2.62634e-15
-0.0050805 2.20953e-15
-0.0050715 7.77168e-15
-0.0050625 9.38953e-18
-0.0050535 5.76783e-15
-0.0050445 2.4506e-16
-0.0050355 9.26871e-15
-0.0050265 7.06285e-15
-0.0050175 1.66861e-15
-0.0050085 7.98149e-15
-0.0049995 2.71228e-16
-0.0049905 1.4177e-14
-0.0049815 4.104e-15
-0.0049725 4.30817e-15
-0.0049635 5.9774e-15
-0.0049545 1.30139e-15
-0.0049455 8.17589e-15
-0.0049365 6.19432e-18
-0.0049275 7.65692e-15
-0.0049185 8.47226e-16
-0.0049095 8.04466e-15
-0.0049005 6.83387e-15
-0.0048915 1.93909e-15
-0.0048825 9.50579e-15
-0.0048735 2.22273e-17
-0.0048645 1.09217e-14
-0.0048555 2.62375e-15
-0.0048465 4.78214e-15
-0.0048375 4.53764e-15
-0.0048285 2.79656e-15
-0.0048195 1.0512e-14
-0.0048105 3.34198e-17
-0.0048015 6.7458e-15
-0.0047925 2.80672e-16
-0.0047835 1.07182e-14
-0.0047745 7.96914e-15
-0.0047655 1.77388e-15
-0.0047565 7.92631e-15
-0.0047475 5.05521e-16
-0.0047385 1.4762e-14
-0.0047295 3.08535e-15
-0.0047205 5.5175e-15
-0.0047115 4.78391e-15
-0.0047025 3.55811e-15
-0.0046935 1.21726e-14
-0.0046845 4.00151e-17
-0.0046755 7.50254e-15
-0.0046665 3.44695e-16
-0.0046575 1.12501e-14
-0.0046485 8.01205e-15
-0.0046395 2.61204e-15
-0.0046305 1.16186e-14
-0.0046215 6.89543e-18
-0.0046125 9.68747e-15
-0.0046035 1.36364e-15
-0.0045945 7.75142e-15
-0.0045855 6.58737e-15
-0.0045765 2.11528e-15
-0.0045675 9.12142e-15
-0.0045585 5.54524e-17
-0.0045495 9.84731e-15
-0.0045405 1.42476e-15
-0.0045315 5.98088e-15
-0.0045225 3.7427e-15
-0.0045135 4.10622e-15
-0.0045045 1.05121e-14
-0.0044955 8.80152e-17
-0.0044865 1.03387e-14
-0.0044775 1.29256e-15
-0.0044685 6.66413e-15
-0.0044595 4.30851e-15
-0.0044505 3.51482e-15
-0.0044415 9.68211e-15
-0.0044325 7.13966e-17
-0.0044235 8.58264e-15
-0.0044145 4.94437e-16
-0.0044055 8.8334e-15
-0.0043965 5.72616e-15
-0.0043875 2.18046e-15
-0.0043785 6.47392e-15
-0.0043695 7.47634e-16
-0.0043605 1.14447e-14
-0.0043515 1.01445e-15
-0.0043425 7.019e-15
-0.0043335 3.80952e-15
-0.0043245 3.86792e-15
-0.0043155 8.79301e-15
-0.0043065 3.13697e-16
-0.0042975 1.01804e-14
-0.0042885 8.53071e-16
-0.0042795 7.20135e-15
-0.0042705 4.25392e-15
-0.0042615 3.00225e-15
-0.0042525 7.6076e-15
-0.0042435 3.01789e-16
-0.0042345 9.07012e-15
-0.0042255 7.33531e-16
-0.0042165 6.17068e-15
-0.0042075 3.23701e-15
-0.0041985 3.03099e-15
-0.0041895 6.19479e-15
-0.0041805 6.22717e-16
-0.0041715 8.76427e-15
-0.0041625 3.03311e-16
-0.0041535 8.12582e-15
-0.0041445 4.43837e-15
-0.0041355 2.38028e-15
-0.0041265 6.18306e-15
-0.0041175 3.47626e-16
-0.0041085 7.92908e-15
-0.0040995 6.66396e-16
-0.0040905 4.69855e-15
-0.0040815 2.11449e-15
-0.0040725 3.19534e-15
-0.0040635 6.39095e-15
-0.0040545 3.96502e-17
-0.0040455 3.55129e-15
-0.0040365 3.61959e-17
-0.0040275 7.15033e-15
-0.0040185 2.31916e-15
-0.0040095 2.53722e-15
-0.0040005 3.26979e-15
-0.0039915 1.64208e-15
-0.0039825 8.54127e-15
-0.0039735 3.34527e-16
-0.0039645 4.65191e-15
-0.0039555 1.25136e-15
-0.0039465 3.9619e-15
-0.0039375 5.34089e-15
-0.0039285 3.99876e-16
-0.0039195 5.16468e-15
-0.0039105 2.59718e-17
-0.0039015 5.52188e-15
-0.0038925 1.76598e-15
-0.0038835 2.54991e-15
-0.0038745 3.66899e-15
-0.0038655 5.3071e-16
-0.0038565 4.30499e-15
-0.0038475 3.59762e-18
-0.0038385 4.88429e-15
-0.0038295 9.2988e-16
-0.0038205 3.84901e-15
-0.0038115 4.63318e-15
-0.0038025 4.92411e-16
-0.0037935 5.7678e-15
-0.0037845 4.52639e-16
-0.0037755 2.50569e-15
-0.0037665 8.77383e-16
-0.0037575 1.82412e-15
-0.0037485 2.3941e-15
-0.0037395 4.33297e-16
-0.0037305 3.33629e-15
-0.0037215 8.57318e-17
-0.0037125 1.71877e-15
-0.0037035 7.48698e-17
-0.0036945 3.52278e-15
-0.0036855 3.12429e-15
-0.0036765 2.56152e-16
-0.0036675 2.24704e-15
-0.0036585 9.44168e-17
-0.0036495 4.97826e-15
-0.0036405 2.33748e-15
-0.0036315 3.42331e-16
-0.0036225 8.92712e-16
-0.0036135 5.6983e-16
-0.0036045 3.06462e-15
-0.0035955 3.46603e-16
-0.0035865 6.97582e-16
-0.0035775 1.52504e-16
-0.0035685 1.1026e-15
-0.0035595 1.41248e-15
-0.0035505 4.8458e-18
-0.0035415 2.92663e-16
-0.0035325 3.28785e-16
-0.0035235 2.49407e-15
-0.0035145 7.91666e-16
-0.0035055 3.25642e-16
-0.0034965 6.52278e-16
-0.0034875 9.45593e-17
-0.0034785 1.14655e-15
-0.0034695 3.57918e-16
-0.0034605 2.20427e-17
-0.0034515 4.13615e-18
-0.0034425 2.84167e-16
-0.0034335 3.38103e-16
-0.0034245 1.32007e-17
-0.0034155 2.27946e-17
-0.0034065 4.451e-18
-0.0033975 1.44138e-17
-0.0033885 2.31541e-17
-0.0033795 5.28728e-17
-0.0033705 2.29059e-17
-0.0033615 2.54315e-16
-0.0033525 1.6603e-16
-0.0033435 1.21659e-17
-0.0033345 5.34939e-18
-0.0033255 5.2597e-17
-0.0033165 8.75942e-17
-0.0033075 8.86592e-17
-0.0032985 1.96183e-16
-0.0032895 2.74897e-16
-0.0032805 3.49367e-17
-0.0032715 8.80559e-17
-0.0032625 3.12958e-17
-0.0032535 2.90048e-16
-0.0032445 8.06476e-16
-0.0032355 1.98304e-16
-0.0032265 3.12729e-18
-0.0032175 1.17031e-16
-0.0032085 1.00933e-15
-0.0031995 7.2518e-16
-0.0031905 3.02526e-18
-0.0031815 5.03096e-17
-0.0031725 1.65372e-16
-0.0031635 3.93725e-16
-0.0031545 6.07379e-17
-0.0031455 7.96389e-16
-0.0031365 3.62941e-18
-0.0031275 2.23532e-15
-0.0031185 1.65226e-15
-0.0031095 2.39925e-16
-0.0031005 1.4703e-15
-0.0030915 1.26553e-16
-0.0030825 3.81118e-15
-0.0030735 1.18082e-15
-0.0030645 1.18371e-15
-0.0030555 1.83903e-15
-0.0030465 3.89746e-16
-0.0030375 2.93009e-15
-0.0030285 2.98684e-17
-0.0030195 2.41079e-15
-0.0030105 3.83634e-16
-0.0030015 2.43477e-15
-0.0029925 1.91689e-15
-0.0029835 1.40971e-15
-0.0029745 5.32569e-15
-0.0029655 3.65385e-17
-0.0029565 3.82387e-15
-0.0029475 6.55065e-16
-0.0029385 3.01847e-15
-0.0029295 2.1478e-15
-0.0029205 1.95024e-15
-0.0029115 5.19096e-15
-0.0029025 2.95798e-16
-0.0028935 8.61102e-15
-0.0028845 1.42964e-15
-0.0028755 4.0375e-15
-0.0028665 2.67944e-15
-0.0028575 2.96263e-15
-0.0028485 6.45869e-15
-0.0028395 7.78076e-16
-0.0028305 1.12728e-14
-0.0028215 5.36104e-16
-0.0028125 1.09666e-14
-0.0028035 6.68715e-15
-0.0027945 3.70402e-15
-0.0027855 1.07113e-14
-0.0027765 5.40176e-16
-0.0027675 1.50186e-14
-0.0027585 1.03065e-15
-0.0027495 1.40894e-14
-0.0027405 1.03752e-14
-0.0027315 2.98623e-15
-0.0027225 1.12604e-14
-0.0027135 7.56125e-16
-0.0027045 1.75703e-14
-0.0026955 1.31104e-15
-0.0026865 1.34038e-14
-0.0026775 6.7261e-15
-0.0026685 8.07122e-15
-0.0026595 1.63041e-14
-0.0026505 1.36115e-15
-0.0026415 2.18866e-14
-0.0026325 3.68558e-16
-0.0026235 2.69288e-14
-0.0026145 1.43885e-14
-0.0026055 8.08817e-15
-0.0025965 2.1143e-14
-0.0025875 1.48561e-15
-0.0025785 3.06913e-14
-0.0025695 2.55123e-15
-0.0025605 1.93486e-14
-0.0025515 8.27246e-15
-0.0025425 1.54611e-14
-0.0025335 2.7345e-14
-0.0025245 1.79923e-15
-0.0025155 3.13729e-14
-0.0025065 3.88587e-16
-0.0024975 3.6838e-14
-0.0024885 1.49846e-14
-0.0024795 1.7539e-14
-0.0024705 3.26938e-14
-0.0024615 3.35239e-15
-0.0024525 4.75085e-14
-0.0024435 2.52478e-15
-0.0024345 3.45272e-14
-0.0024255 1.47592e-14
-0.0024165 2.04235e-14
-0.0024075 3.58384e-14
-0.0023985 3.783e-15
-0.0023895 4.68247e-14
-0.0023805 5.58317e-16
-0.0023715 4.90537e-14
-0.0023625 1.66402e-14
-0.0023535 2.81809e-14
-0.0023445 4.2403e-14
-0.0023355 7.32357e-15
-0.0023265 6.80336e-14
-0.0023175 2.03449e-15
-0.0023085 5.28228e-14
-0.0022995 1.81647e-14
-0.0022905 3.3716e-14
-0.0022815 4.99246e-14
-0.0022725 7.54391e-15
-0.0022635 7.05556e-14
-0.0022545 7.21849e-16
-0.0022455 6.91925e-14
-0.0022365 2.21884e-14
-0.0022275 3.82764e-14
-0.0022185 5.2085e-14
-0.0022095 1.28862e-14
-0.0022005 9.04034e-14
-0.0021915 1.12817e-15
-0.0021825 7.83889e-14
-0.0021735 2.28352e-14
-0.0021645 4.96123e-14
-0.0021555 6.59066e-14
-0.0021465 1.12076e-14
-0.0021375 8.65385e-14
-0.0021285 2.31626e-18
-0.0021195 1.03829e-13
-0.0021105 2.59158e-14
-0.0021015 6.18769e-14
-0.0020925 7.3245e-14
-0.0020835 1.95522e-14
-0.0020745 1.23186e-13
-0.0020655 1.0638e-15
-0.0020565 1.02561e-13
-0.0020475 2.2798e-14
-0.0020385 8.03035e-14
-0.0020295 9.07685e-14
-0.0020205 1.89547e-14
-0.0020115 1.2607e-13
-0.0020025 3.93058e-17
-0.0019935 1.38172e-13
-0.0019845 3.52188e-14
-0.0019755 7.61312e-14
-0.0019665 8.6112e-14
-0.0019575 2.87752e-14
-0.0019485 1.5316e-13
-0.0019395 3.1542e-16
-0.0019305 1.39213e-13
-0.0019215 2.74479e-14
-0.0019125 1.04472e-13
-0.0019035 1.06798e-13
-0.0018945 2.91373e-14
-0.0018855 1.55651e-13
-0.0018765 1.97403e-16
-0.0018675 1.79343e-13
-0.0018585 3.54718e-14
-0.0018495 1.10779e-13
-0.0018405 1.03315e-13
-0.0018315 4.84856e-14
-0.0018225 2.05832e-13
-0.0018135 2.50046e-17
-0.0018045 1.93474e-13
-0.0017955 3.65998e-14
-0.0017865 1.32695e-13
-0.0017775 1.27811e-13
-0.0017685 4.24514e-14
-0.0017595 1.97297e-13
-0.0017505 6.35962e-16
-0.0017415 2.24929e-13
-0.0017325 3.75564e-14
-0.0017235 1.50952e-13
-0.0017145 1.30636e-13
-0.0017055 5.91876e-14
-0.0016965 2.33931e-13
-0.0016875 7.00499e-16
-0.0016785 2.50041e-13
-0.0016695 3.73925e-14
-0.0016605 1.81232e-13
-0.0016515 1.55073e-13
-0.0016425 5.98105e-14
-0.0016335 2.45625e-13
-0.0016245 1.17701e-15
-0.0016155 2.64524e-13
-0.0016065 3.37273e-14
-0.0015975 1.99576e-13
-0.0015885 1.44709e-13
-0.0015795 8.86225e-14
-0.0015705 2.82856e-13
-0.0015615 3.56442e-15
-0.0015525 3.23926e-13
-0.0015435 4.04253e-14
-0.0015345 2.28451e-13
-0.0015255 1.66668e-13
-0.0015165 9.48183e-14
-0.0015075 3.05909e-13
-0.0014985 3.9475e-15
-0.0014895 3.37687e-13
-0.0014805 3.46158e-14
-0.0014715 2.58473e-13
-0.0014625 1.64958e-13
-0.0014535 1.21371e-13
-0.0014445 3.31437e-13
-0.0014355 9.24077e-15
-0.0014265 3.94787e-13
-0.0014175 3.28295e-14
-0.0014085 3.12914e-13
-0.0013995 1.87946e-13
-0.0013905 1.41319e-13
-0.0013815 3.6908e-13
-0.0013725 1.27922e-14
-0.0013635 4.47785e-13
-0.0013545 3.37894e-14
-0.0013455 3.56169e-13
-0.0013365 2.01912e-13
-0.0013275 1.69077e-13
-0.0013185 4.15878e-13
-0.0013095 1.59736e-14
-0.0013005 5.02443e-13
-0.0012915 3.43976e-14
-0.0012825 4.10366e-13
-0.0012735 2.30337e-13
-0.0012645 1.84002e-13
-0.0012555 4.53684e-13
-0.0012465 1.8007e-14
-0.0012375 5.46544e-13
-0.0012285 3.76798e-14
-0.0012195 4.25326e-13
-0.0012105 2.1999e-13
-0.0012015 2.19013e-13
-0.0011925 4.7636e-13
-0.0011835 2.7801e-14
-0.0011745 5.93197e-13
-0.0011655 2.6401e-14
-0.0011565 5.22949e-13
-0.0011475 2.48499e-13
-0.0011385 2.52913e-13
-0.0011295 5.19919e-13
-0.0011205 3.93949e-14
-0.0011115 6.86778e-13
-0.0011025 3.10178e-14
-0.0010935 5.65139e-13
-0.0010845 2.49411e-13
-0.0010755 3.09114e-13
-0.0010665 5.92161e-13
-0.0010575 4.24265e-14
-0.0010485 7.32188e-13
-0.0010395 2.43503e-14
-0.0010305 6.55366e-13
-0.0010215 2.73892e-13
-0.0010125 3.43194e-13
-0.0010035 6.17719e-13
-0.0009945 6.50507e-14
-0.0009855 8.53658e-13
-0.0009765 2.75019e-14
-0.0009675 7.22835e-13
-0.0009585 2.84776e-13
-0.0009495 4.04884e-13
-0.0009405 6.95748e-13
-0.0009315 6.9271e-14
-0.0009225 8.96237e-13
-0.0009135 1.75128e-14
-0.0009045 8.5383e-13
-0.0008955 3.18052e-13
-0.0008865 4.51779e-13
-0.0008775 7.36593e-13
-0.0008685 9.83653e-14
-0.0008595 1.04924e-12
-0.0008505 2.28202e-14
-0.0008415 9.22138e-13
-0.0008325 3.27696e-13
-0.0008235 5.22407e-13
-0.0008145 8.16329e-13
-0.0008055 1.05952e-13
-0.0007965 1.09486e-12
-0.0007875 1.30346e-14
-0.0007785 1.05907e-12
-0.0007695 3.41522e-13
-0.0007605 6.03139e-13
-0.0007515 8.58599e-13
-0.0007425 1.54506e-13
-0.0007335 1.28114e-12
-0.0007245 1.35134e-14
-0.0007155 1.18461e-12
-0.0007065 3.50154e-13
-0.0006975 7.31316e-13
-0.0006885 9.93288e-13
-0.0006795 1.65623e-13
-0.0006705 1.3718e-12
-0.0006615 7.25425e-15
-0.0006525 1.36284e-12
-0.0006435 3.73125e-13
-0.0006345 8.35747e-13
-0.0006255 1.04527e-12
-0.0006165 2.37324e-13
-0.0006075 1.61604e-12
-0.0005985 6.80128e-15
-0.0005895 1.55217e-12
-0.0005805 3.92156e-13
-0.0005715 1.00537e-12
-0.0005625 1.20132e-12
-0.0005535 2.72405e-13
-0.0005445 1.785e-12
-0.0005355 2.33851e-15
-0.0005265 1.83373e-12
-0.0005175 4.41186e-13
-0.0005085 1.15158e-12
-0.0004995 1.30156e-12
-0.0004905 3.63657e-13
-0.0004815 2.0954e-12
-0.0004725 1.65611e-15
-0.0004635 2.10116e-12
-0.0004545 4.55643e-13
-0.0004455 1.42772e-12
-0.0004365 1.53058e-12
-0.0004275 4.31497e-13
-0.0004185 2.39027e-12
-0.0004095 3.21829e-17
-0.0004005 2.53248e-12
-0.0003915 5.302e-13
-0.0003825 1.66396e-12
-0.0003735 1.70083e-12
-0.0003645 5.71298e-13
-0.0003555 2.83368e-12
-0.0003465 4.82019e-16
-0.0003375 3.00854e-12
-0.0003285 5.47586e-13
-0.0003195 2.16593e-12
-0.0003105 2.06537e-12
-0.0003015 7.41231e-13
-0.0002925 3.45499e-12
-0.0002835 3.96399e-15
-0.0002745 3.82151e-12
-0.0002655 6.71789e-13
-0.0002565 2.70031e-12
-0.0002475 2.46854e-12
-0.0002385 1.02553e-12
-0.0002295 4.38707e-12
-0.0002205 1.14508e-14
-0.0002115 4.93387e-12
-0.0002025 7.62135e-13
-0.0001935 3.78463e-12
-0.0001845 3.25561e-12
-0.0001755 1.48585e-12
-0.0001665 5.95633e-12
-0.0001575 3.73361e-14
-0.0001485 7.20375e-12
-0.0001395 1.05999e-12
-0.0001305 5.62866e-12
-0.0001215 4.68038e-12
-0.0001125 2.48672e-12
-0.0001035 9.42609e-12
-9.45e-05 8.6428e-14
-8.55e-05 1.21236e-11
-7.65e-05 1.59672e-12
-6.75e-05 1.10492e-11
-5.85e-05 8.98568e-12
-4.95e-05 5.85403e-12
-4.05e-05 2.20265e-11
-3.15e-05 4.90292e-13
-2.25e-05 4.10611e-11
-1.35e-05 5.32863e-12
-4.5e-06 9.32752e-11
4.5e-06 2.64273e-10
1.35e-05 9.32752e-11
2.25e-05 5.32863e-12
3.15e-05 4.10611e-11
4.05e-05 4.90292e-13
4.95e-05 2.20265e-11
5.85e-05 5.85403e-12
6.75e-05 8.98568e-12
7.65e-05 1.10492e-11
8.55e-05 1.59672e-12
9.45e-05 1.21236e-11
0.0001035 8.6428e-14
0.0001125 9.42609e-12
0.0001215 2.48672e-12
0.0001305 4.68038e-12
0.0001395 5.62866e-12
0.0001485 1.05999e-12
0.0001575 7.20375e-12
0.0001665 3.73361e-14
0.0001755 5.95633e-12
0.0001845 1.48585e-12
0.0001935 3.25561e-12
0.0002025 3.78463e-12
0.0002115 7.62135e-13
0.0002205 4.93387e-12
0.0002295 1.14508e-14
0.0002385 4.38707e-12
0.0002475 1.02553e-12
0.0002565 2.46854e-12
0.0002655 2.70031e-12
0.0002745 6.71789e-13
0.0002835 3.82151e-12
0.0002925 3.96399e-15
0.0003015 3.45499e-12
0.0003105 7.41231e-13
0.0003195 2.06537e-12
0.0003285 2.16593e-12
0.0003375 5.47586e-13
0.0003465 3.00854e-12
0.0003555 4.82019e-16
0.0003645 2.83368e-12
0.0003735 5.71298e-13
0.0003825 1.70083e-12
0.0003915 1.66396e-12
0.0004005 5.302e-13
0.0004095 2.53248e-12
0.0004185 3.21829e-17
0.0004275 2.39027e-12
0.0004365 4.31497e-13
0.0004455 1.53058e-12
0.0004545 1.42772e-12
0.0004635 4.55643e-13
0.0004725 2.10116e-12
0.0004815 1.65611e-15
0.0004905 2.0954e-12
0.0004995 3.63657e-13
0.0005085 1.30156e-12
0.0005175 1.15158e-12
0.0005265 4.41186e-13
0.0005355 1.83373e-12
0.0005445 2.33851e-15
0.0005535 1.785e-12
0.0005625 2.72405e-13
0.0005715 1.20132e-12
0.0005805 1.00537e-12
0.0005895 3.92156e-13
0.0005985 1.55217e-12
0.0006075 6.80128e-15
0.0006165 1.61604e-12
0.0006255 2.37324e-13
0.0006345 1.04527e-12
0.0006435 8.35747e-13
0.0006525 3.73125e-13
0.0006615 1.36284e-12
0.0006705 7.25425e-15
0.0006795 1.3718e-12
0.0006885 1.65623e-13
0.0006975 9.93288e-13
0.0007065 7.31316e-13
0.0007155 3.50154e-13
0.0007245 1.18461e-12
0.0007335 1.35134e-14
0.0007425 1.28114e-12
0.0007515 1.54506e-13
0.0007605 8.58599e-13
0.0007695 6.03139e-13
0.0007785 3.41522e-13
0.0007875 1.05907e-12
0.0007965 1.30346e-14
0.0008055 1.09486e-12
0.0008145 1.05952e-13
0.0008235 8.16329e-13
0.0008325 5.22407e-13
0.0008415 3.27696e-13
0.0008505 9.22138e-13
0.0008595 2.28202e-14
0.0008685 1.04924e-12
0.0008775 9.83653e-14
0.0008865 7.36593e-13
0.0008955 4.51779e-13
0.0009045 3.18052e-13
0.0009135 8.5383e-13
0.0009225 1.75128e-14
0.0009315 8.96237e-13
0.0009405 6.9271e-14
0.0009495 6.95748e-13
0.0009585 4.04884e-13
0.0009675 2.84776e-13
0.0009765 7.22835e-13
0.0009855 2.75019e-14
0.0009945 8.53658e-13
0.0010035 6.50507e-14
0.0010125 6.17719e-13
0.0010215 3.43194e-13
0.0010305 2.73892e-13
0.0010395 6.55366e-13
0.0010485 2.43503e-14
0.0010575 7.32188e-13
0.0010665 4.24265e-14
0.0010755 5.92161e-13
0.0010845 3.09114e-13
0.0010935 2.49411e-13
0.0011025 5.65139e-13
0.0011115 3.10178e-14
0.0011205 6.86778e-13
0.0011295 3.93949e-14
0.0011385 5.19919e-13
0.0011475 2.52913e-13
0.0011565 2.48499e-13
0.0011655 5.22949e-13
0.0011745 2.6401e-14
0.0011835 5.93197e-13
0.0011925 2.7801e-14
0.0012015 4.7636e-13
0.0012105 2.19013e-13
0.0012195 2.1999e-13
0.0012285 4.25326e-13
0.0012375 3.76798e-14
0.0012465 5.46544e-13
0.0012555 1.8007e-14
0.0012645 4.53684e-13
0.0012735 1.84002e-13
0.0012825 2.30337e-13
0.0012915 4.10366e-13
0.0013005 3.43976e-14
0.0013095 5.02443e-13
0.0013185 1.59736e-14
0.0013275 4.15878e-13
0.0013365 1.69077e-13
0.0013455 2.01912e-13
0.0013545 3.56169e-13
0.0013635 3.37894e-14
0.0013725 4.47785e-13
0.0013815 1.27922e-14
0.0013905 3.6908e-13
0.0013995 1.41319e-13
0.0014085 1.87946e-13
0.0014175 3.12914e-13
0.0014265 3.28295e-14
0.0014355 3.94787e-13
0.0014445 9.24077e-15
0.0014535 3.31437e-13
0.0014625 1.21371e-13
0.0014715 1.64958e-13
0.0014805 2.58473e-13
0.0014895 3.46158e-14
0.0014985 3.37687e-13
0.0015075 3.9475e-15
0.0015165 3.05909e-13
0.0015255 9.48183e-14
0.0015345 1.66668e-13
0.0015435 2.28451e-13
0.0015525 4.04253e-14
0.0015615 3.23926e-13
0.0015705 3.56442e-15
0.0015795 2.82856e-13
0.0015885 8.86225e-14
0.0015975 1.44709e-13
0.0016065 1.99576e-13
0.0016155 3.37273e-14
0.0016245 2.64524e-13
0.0016335 1.17701e-15
0.0016425 2.45625e-13
0.0016515 5.98105e-14
0.0016605 1.55073e-13
0.0016695 1.81232e-13
0.0016785 3.73925e-14
0.0016875 2.50041e-13
0.0016965 7.00499e-16
0.0017055 2.33931e-13
0.0017145 5.91876e-14
0.0017235 1.30636e-13
0.0017325 1.50952e-13
0.0017415 3.75564e-14
0.0017505 2.24929e-13
0.0017595 6.35962e-16
0.0017685 1.97297e-13
0.0017775 4.24514e-14
0.0017865 1.27811e-13
0.0017955 1.32695e-13
0.0018045 3.65998e-14
0.0018135 1.93474e-13
0.0018225 2.50046e-17
0.0018315 2.05832e-13
0.0018405 4.84856e-14
0.0018495 1.03315e-13
0.0018585 1.10779e-13
0.0018675 3.54718e-14
0.0018765 1.79343e-13
0.0018855 1.97403e-16
0.0018945 1.55651e-13
0.0019035 2.91373e-14
0.0019125 1.06798e-13
0.0019215 1.04472e-13
0.0019305 2.74479e-14
0.0019395 1.39213e-13
0.0019485 3.1542e-16
0.0019575 1.5316e-13
0.0019665 2.87752e-14
0.0019755 8.6112e-14
0.0019845 7.61312e-14
0.0019935 3.52188e-14
0.0020025 1.38172e-13
0.0020115 3.93058e-17
0.0020205 1.2607e-13
0.0020295 1.89547e-14
0.0020385 9.07685e-14
0.0020475 8.03035e-14
0.0020565 2.2798e-14
0.0020655 1.02561e-13
0.0020745 1.0638e-15
0.0020835 1.23186e-13
0.0020925 1.95522e-14
0.0021015 7.3245e-14
0.0021105 6.18769e-14
0.0021195 2.59158e-14
0.0021285 1.03829e-13
0.0021375 2.31626e-18
0.0021465 8.65385e-14
0.0021555 1.12076e-14
0.0021645 6.59066e-14
0.0021735 4.96123e-14
0.0021825 2.28352e-14
0.0021915 7.83889e-14
0.0022005 1.12817e-15
0.0022095 9.04034e-14
0.0022185 1.28862e-14
0.0022275 5.2085e-14
0.0022365 3.82764e-14
0.0022455 2.21884e-14
0.0022545 6.91925e-14
0.0022635 7.21849e-16
0.0022725 7.05556e-14
0.0022815 7.54391e-15
0.0022905 4.99246e-14
0.0022995 3.3716e-14
0.0023085 1.81647e-14
0.0023175 5.28228e-14
0.0023265 2.03449e-15
0.0023355 6.80336e-14
0.0023445 7.32357e-15
0.0023535 4.2403e-14
0.0023625 2.81809e-14
0.0023715 1.66402e-14
0.0023805 4.90537e-14
0.0023895 5.58317e-16
0.0023985 4.68247e-14
0.0024075 3.783e-15
0.0024165 3.58384e-14
0.0024255 2.04235e-14
0.0024345 1.47592e-14
0.0024435 3.45272e-14
0.0024525 2.52478e-15
0.0024615 4.75085e-14
0.0024705 3.35239e-15
0.0024795 3.26938e-14
0.0024885 1.7539e-14
0.0024975 1.49846e-14
0.0025065 3.6838e-14
0.0025155 3.88587e-16
0.0025245 3.13729e-14
0.0025335 1.79923e-15
0.0025425 2.7345e-14
0.0025515 1.54611e-14
0.0025605 8.27246e-15
0.0025695 1.93486e-14
0.0025785 2.55123e-15
0.0025875 3.06913e-14
0.0025965 1.48561e-15
0.0026055 2.1143e-14
0.0026145 8.08817e-15
0.0026235 1.43885e-14
0.0026325 2.69288e-14
0.0026415 3.68558e-16
0.0026505 2.18866e-14
0.0026595 1.36115e-15
0.0026685 1.63041e-14
0.0026775 8.07122e-15
0.0026865 6.7261e-15
0.0026955 1.34038e-14
0.0027045 1.31104e-15
0.0027135 1.75703e-14
0.0027225 7.56125e-16
0.0027315 1.12604e-14
0.0027405 2.98623e-15
0.0027495 1.03752e-14
0.0027585 1.40894e-14
0.0027675 1.03065e-15
0.0027765 1.50186e-14
0.0027855 5.40176e-16
0.0027945 1.07113e-14
0.0028035 3.70402e-15
0.0028125 6.68715e-15
0.0028215 1.09666e-14
0.0028305 5.36104e-16
0.0028395 1.12728e-14
0.0028485 7.78076e-16
0.0028575 6.45869e-15
0.0028665 2.96263e-15
0.0028755 2.67944e-15
0.0028845 4.0375e-15
0.0028935 1.42964e-15
0.0029025 8.61102e-15
0.0029115 2.95798e-16
0.0029205 5.19096e-15
0.0029295 1.95024e-15
0.0029385 2.1478e-15
0.0029475 3.01847e-15
0.0029565 6.55065e-16
0.0029655 3.82387e-15
0.0029745 3.65385e-17
0.0029835 5.32569e-15
0.0029925 1.40971e-15
0.0030015 1.91689e-15
0.0030105 2.43477e-15
0.0030195 3.83634e-16
0.0030285 2.41079e-15
0.0030375 2.98684e-17
0.0030465 2.93009e-15
0.0030555 3.89746e-16
0.0030645 1.83903e-15
0.0030735 1.18371e-15
0.0030825 1.18082e-15
0.0030915 3.81118e-15
0.0031005 1.26553e-16
0.0031095 1.4703e-15
0.0031185 2.39925e-16
0.0031275 1.65226e-15
0.0031365 2.23532e-15
0.0031455 3.62941e-18
0.0031545 7.96389e-16
0.0031635 6.07379e-17
0.0031725 3.93725e-16
0.0031815 1.65372e-16
0.0031905 5.03096e-17
0.0031995 3.02526e-18
0.0032085 7.2518e-16
0.0032175 1.00933e-15
0.0032265 1.17031e-16
0.0032355 3.12729e-18
0.0032445 1.98304e-16
0.0032535 8.06476e-16
0.0032625 2.90048e-16
0.0032715 3.12958e-17
0.0032805 8.80559e-17
0.0032895 3.49367e-17
0.0032985 2.74897e-16
0.0033075 1.96183e-16
0.0033165 8.86592e-17
0.0033255 8.75942e-17
0.0033345 5.2597e-17
0.0033435 5.34939e-18
0.0033525 1.21659e-17
0.0033615 1.6603e-16
0.0033705 2.54315e-16
0.0033795 2.29059e-17
0.0033885 5.28728e-17
0.0033975 2.31541e-17
0.0034065 1.44138e-17
0.0034155 4.451e-18
0.0034245 2.27946e-17
0.0034335 1.32007e-17
0.0034425 3.38103e-16
0.0034515 2.84167e-16
0.0034605 4.13615e-18
0.0034695 2.20427e-17
0.0034785 3.57918e-16
0.0034875 1.14655e-15
0.0034965 9.45593e-17
0.0035055 6.52278e-16
0.0035145 3.25642e-16
0.0035235 7.91666e-16
0.0035325 2.49407e-15
0.0035415 3.28785e-16
0.0035505 2.92663e-16
0.0035595 4.8458e-18
0.0035685 1.41248e-15
0.0035775 1.1026e-15
0.0035865 1.52504e-16
0.0035955 6.97582e-16
0.0036045 3.46603e-16
0.0036135 3.06462e-15
0.0036225 5.6983e-16
0.0036315 8.92712e-16
0.0036405 3.42331e-16
0.0036495 2.33748e-15
0.0036585 4.97826e-15
0.0036675 9.44168e-17
0.0036765 2.24704e-15
0.0036855 2.56152e-16
0.0036945 3.12429e-15
0.0037035 3.52278e-15
0.0037125 7.48698e-17
0.0037215 1.71877e-15
0.0037305 8.57318e-17
0.0037395 3.33629e-15
0.0037485 4.33297e-16
0.0037575 2.3941e-15
0.0037665 1.82412e-15
0.0037755 8.77383e-16
0.0037845 2.50569e-15
0.0037935 4.52639e-16
0.0038025 5.7678e-15
0.0038115 4.92411e-16
0.0038205 4.63318e-15
0.0038295 3.84901e-15
0.0038385 9.2988e-16
0.0038475 4.88429e-15
0.0038565 3.59762e-18
0.0038655 4.30499e-15
0.0038745 5.3071e-16
0.0038835 3.66899e-15
0.0038925 2.54991e-15
0.0039015 1.76598e-15
0.0039105 5.52188e-15
0.0039195 2.59718e-17
0.0039285 5.16468e-15
0.0039375 3.99876e-16
0.0039465 5.34089e-15
0.0039555 3.9619e-15
0.0039645 1.25136e-15
0.0039735 4.65191e-15
0.0039825 3.34527e-16
0.0039915 8.54127e-15
0.0040005 1.64208e-15
0.0040095 3.26979e-15
0.0040185 2.53722e-15
0.0040275 2.31916e-15
0.0040365 7.15033e-15
0.0040455 3.61959e-17
0.0040545 3.55129e-15
0.0040635 3.96502e-17
0.0040725 6.39095e-15
0.0040815 3.19534e-15
0.0040905 2.11449e-15
0.0040995 4.69855e-15
0.0041085 6.66396e-16
0.0041175 7.92908e-15
0.0041265 3.47626e-16
0.0041355 6.18306e-15
0.0041445 2.38028e-15
0.0041535 4.43837e-15
0.0041625 8.12582e-15
0.0041715 3.03311e-16
0.0041805 8.76427e-15
0.0041895 6.22717e-16
0.0041985 6.19479e-15
0.0042075 3.03099e-15
0.0042165 3.23701e-15
0.0042255 6.17068e-15
0.0042345 7.33531e-16
0.0042435 9.07012e-15
0.0042525 3.01789e-16
0.0042615 7.6076e-15
0.0042705 3.00225e-15
0.0042795 4.25392e-15
0.0042885 7.20135e-15
0.0042975 8.53071e-16
0.0043065 1.01804e-14
0.0043155 3.13697e-16
0.0043245 8.79301e-15
0.0043335 3.86792e-15
0.0043425 3.80952e-15
0.0043515 7.019e-15
0.0043605 1.01445e-15
0.0043695 1.14447e-14
0.0043785 7.47634e-16
0.0043875 6.47392e-15
0.0043965 2.18046e-15
0.0044055 5.72616e-15
0.0044145 8.8334e-15
0.0044235 4.94437e-16
0.0044325 8.58264e-15
0.0044415 7.13966e-17
0.0044505 9.68211e-15
0.0044595 3.51482e-15
0.0044685 4.30851e-15
0.0044775 6.66413e-15
0.0044865 1.29256e-15
0.0044955 1.03387e-14
0.0045045 8.80152e-17
0.0045135 1.05121e-14
0.0045225 4.10622e-15
0.0045315 3.7427e-15
0.0045405 5.98088e-15
0.0045495 1.42476e-15
0.0045585 9.84731e-15
0.0045675 5.54524e-17
0.0045765 9.12142e-15
0.0045855 2.11528e-15
0.0045945 6.58737e-15
0.0046035 7.75142e-15
0.0046125 1.36364e-15
0.0046215 9.68747e-15
0.0046305 6.89543e-18
0.0046395 1.16186e-14
0.0046485 2.61204e-15
0.0046575 8.01205e-15
0.0046665 1.12501e-14
0.0046755 3.44695e-16
0.0046845 7.50254e-15
0.0046935 4.00151e-17
0.0047025 1.21726e-14
0.0047115 3.55811e-15
0.0047205 4.78391e-15
0.0047295 5.5175e-15
0.0047385 3.08535e-15
0.0047475 1.4762e-14
0.0047565 5.05521e-16
0.0047655 7.92631e-15
0.0047745 1.77388e-15
0.0047835 7.96914e-15
0.0047925 1.07182e-14
0.0048015 2.80672e-16
0.0048105 6.7458e-15
0.0048195 3.34198e-17
0.0048285 1.0512e-14
0.0048375 2.79656e-15
0.0048465 4.53764e-15
0.0048555 4.78214e-15
0.0048645 2.62375e-15
0.0048735 1.09217e-14
0.0048825 2.22273e-17
0.0048915 9.50579e-15
0.0049005 1.93909e-15
0.0049095 6.83387e-15
0.0049185 8.04466e-15
0.0049275 8.47226e-16
0.0049365 7.65692e-15
0.0049455 6.19432e-18
0.0049545 8.17589e-15
0.0049635 1.30139e-15
0.0049725 5.9774e-15
0.0049815 4.30817e-15
0.0049905 4.104e-15
0.0049995 1.4177e-14
0.0050085 2.71228e-16
0.0050175 7.98149e-15
0.0050265 1.66861e-15
0.0050355 7.06285e-15
0.0050445 9.26871e-15
0.0050535 2.4506e-16
0.0050625 5.76783e-15
0.0050715 9.38953e-18
0.0050805 7.77168e-15
0.0050895 2.20953e-15
0.0050985 2.62634e-15
0.0051075 2.11122e-15
0.0051165 3.19938e-15
0.0051255 8.39893e-15
0.0051345 2.08239e-17
0.0051435 8.14921e-15
0.0051525 1.62509e-15
0.0051615 4.27844e-15
0.0051705 4.22517e-15
0.0051795 1.20343e-15
0.0051885 5.56474e-15
0.0051975 2.51091e-17
0.0052065 5.1104e-15
0.0052155 2.43073e-16
0.0052245 6.18493e-15
0.0052335 3.87216e-15
0.0052425 1.8174e-15
0.0052515 5.80401e-15
0.0052605 1.07662e-16
0.0052695 6.21303e-15
0.0052785 4.57704e-16
0.0052875 5.52542e-15
0.0052965 3.82429e-15
0.0053055 1.23581e-15
0.0053145 3.88242e-15
0.0053235 4.98762e-16
0.0053325 6.93456e-15
0.0053415 4.97534e-16
0.0053505 4.44348e-15
0.0053595 1.71094e-15
0.0053685 4.2996e-15
0.0053775 8.94012e-15
0.0053865 1.92209e-17
0.0053955 4.80457e-15
0.0054045 3.38063e-16
0.0054135 5.16528e-15
0.0054225 3.85079e-15
0.0054315 7.08508e-16
0.0054405 2.75682e-15
0.0054495 4.3982e-16
0.0054585 4.88902e-15
0.0054675 7.83587e-17
0.0054765 5.60119e-15
0.0054855 2.86803e-15
0.0054945 1.61475e-15
0.0055035 4.30582e-15
0.0055125 8.77438e-17
0.0055215 3.83507e-15
0.0055305 1.1905e-16
0.0055395 3.75693e-15
0.0055485 1.51062e-15
0.0055575 1.81619e-15
0.0055665 2.90864e-15
0.0055755 5.56577e-16
0.0055845 4.72549e-15
0.0055935 1.65322e-16
0.0056025 2.76602e-15
0.0056115 3.04339e-16
0.0056205 5.03286e-15
0.0056295 6.03865e-15
0.0056385 1.06501e-16
0.0056475 3.72132e-15
0.0056565 7.35988e-18
0.0056655 6.17934e-15
0.0056745 2.86387e-15
0.0056835 1.42867e-15
0.0056925 3.50057e-15
0.0057015 2.73948e-16
0.0057105 4.8043e-15
0.0057195 3.52133e-16
0.0057285 3.32464e-15
0.0057375 2.08005e-15
0.0057465 9.74724e-16
0.0057555 2.76191e-15
0.0057645 1.74262e-16
0.0057735 4.32872e-15
0.0057825 1.06155e-15
0.0057915 6.904e-16
0.0058005 2.97002e-16
0.0058095 1.57373e-15
0.0058185 2.20439e-15
0.0058275 1.99576e-16
0.0058365 3.01273e-15
0.0058455 3.80373e-16
0.0058545 1.09052e-15
0.0058635 4.90606e-16
0.0058725 8.86169e-16
0.0058815 1.50486e-15
0.0058905 3.54409e-17
0.0058995 7.13521e-16
0.0059085 1.70727e-16
0.0059175 2.67781e-15
0.0059265 7.79664e-16
0.0059355 5.06848e-16
0.0059445 4.01461e-16
0.0059535 1.03367e-15
0.0059625 2.69597e-15
0.0059715 4.96361e-17
0.0059805 1.42307e-15
0.0059895 2.9485e-16
0.0059985 1.07208e-15
0.0060075 1.18673e-15
0.0060165 1.16364e-16
0.0060255 8.10219e-16
0.0060345 6.33954e-17
0.0060435 1.22616e-15
0.0060525 1.9284e-17
0.0060615 1.82965e-15
0.0060705 8.52162e-16
0.0060795 1.03016e-15
0.0060885 3.1175e-15
0.0060975 1.08046e-16
0.0061065 1.49137e-15
0.0061155 5.75409e-16
0.0061245 6.14458e-16
0.0061335 1.06274e-15
0.0061425 4.84175e-17
0.0061515 6.55601e-16
0.0061605 9.18087e-17
0.0061695 2.34888e-15
0.0061785 1.35426e-15
0.0061875 4.31432e-17
0.0061965 3.32021e-16
0.0062055 1.29231e-16
0.0062145 1.00786e-15
0.0062235 2.02784e-16
0.0062325 1.27761e-16
0.0062415 3.67693e-17
0.0062505 2.69268e-16
0.0062595 2.05905e-16
0.0062685 1.36152e-16
0.0062775 4.77538e-16
0.0062865 1.59421e-17
0.0062955 2.09476e-16
0.0063045 1.32443e-17
0.0063135 3.83428e-16
0.0063225 2.58343e-16
0.0063315 9.70694e-17
0.0063405 5.20541e-16
0.0063495 1.56151e-16
0.0063585 1.23105e-17
0.0063675 9.72765e-17
0.0063765 3.71511e-16
0.0063855 1.33437e-16
0.0063945 1.31146e-17
0.0064035 4.22173e-17
0.0064125 9.73292e-16
0.0064215 1.7519e-15
0.0064305 5.45546e-16
0.0064395 9.23644e-18
0.0064485 9.2599e-18
0.0064575 3.5098e-16
0.0064665 7.22765e-16
0.0064755 2.61956e-16
0.0064845 2.25816e-17
0.0064935 2.27905e-17
0.0065025 6.98642e-17
0.0065115 2.95182e-17
0.0065205 9.93801e-18
0.0065295 2.24025e-17
0.0065385 1.91055e-16
0.0065475 1.95444e-16
0.0065565 1.04437e-17
0.0065655 1.11461e-16
0.0065745 7.17074e-17
0.0065835 1.39702e-17
0.0065925 7.21459e-17
0.0066015 6.8148e-17
0.0066105 6.84025e-17
0.0066195 1.06565e-16
0.0066285 1.03212e-16
0.0066375 3.84029e-17
0.0066465 1.15368e-17
0.0066555 1.45035e-17
0.0066645 7.82229e-17
0.0066735 3.21518e-16
0.0066825 6.88179e-16
0.0066915 6.54034e-16
0.0067005 1.20134e-16
0.0067095 1.06896e-16
0.0067185 3.0667e-16
0.0067275 3.824e-17
0.0067365 9.18419e-17
0.0067455 4.39154e-17
0.0067545 1.52574e-16
0.0067635 5.4946e-16
0.0067725 3.66933e-16
0.0067815 1.50631e-16
0.0067905 1.873e-16
0.0067995 2.11375e-16
0.0068085 1.65284e-17
0.0068175 1.53937e-16
0.0068265 1.03875e-16
0.0068355 5.08775e-17
0.0068445 1.16327e-16
0.0068535 7.92841e-17
0.0068625 6.83356e-16
0.0068715 3.73967e-16
0.0068805 1.11085e-17
0.0068895 1.5789e-17
0.0068985 5.68676e-16
0.0069075 1.00837e-15
0.0069165 1.17174e-16
0.0069255 1.48104e-16
0.0069345 1.83941e-17
0.0069435 5.67068e-16
0.0069525 7.60549e-16
0.0069615 1.22612e-17
0.0069705 3.58993e-16
0.0069795 6.39239e-17
0.0069885 2.12267e-16
0.0069975 1.9901e-16
0.0070065 1.87984e-17
0.0070155 3.92681e-17
0.0070245 1.02391e-16
0.0070335 2.01505e-16
0.0070425 2.13351e-17
0.0070515 2.03817e-16
0.0070605 2.39955e-17
0.0070695 7.06815e-16
0.0070785 4.04299e-16
0.0070875 4.92034e-17
0.0070965 1.03329e-16
0.0071055 3.37035e-16
0.0071145 1.26949e-15
0.0071235 2.27208e-16
0.0071325 1.76853e-16
0.0071415 2.03814e-17
0.0071505 9.84644e-16
0.0071595 1.35185e-15
0.0071685 1.2622e-17
0.0071775 6.38071e-16
0.0071865 4.3975e-17
0.0071955 6.73103e-16
0.0072045 3.04914e-16
0.0072135 4.68574e-16
0.0072225 1.08056e-15
0.0072315 1.47815e-17
0.0072405 4.02031e-16
0.0072495 3.55164e-17
0.0072585 1.49995e-15
0.0072675 6.56663e-16
0.0072765 4.68984e-16
0.0072855 1.38113e-15
0.0072945 1.99618e-17
0.0073035 6.52835e-16
0.0073125 2.27545e-17
0.0073215 1.27053e-15
0.0073305 1.20455e-15
0.0073395 1.72477e-17
0.0073485 2.72499e-17
0.0073575 7.2158e-16
0.0073665 1.53292e-15
0.0073755 1.20387e-17
0.0073845 1.64834e-15
0.0073935 6.30157e-16
0.0074025 6.31971e-16
0.0074115 1.20161e-15
0.0074205 1.3053e-16
0.0074295 1.90945e-15
0.0074385 2.53636e-16
0.0074475 9.05709e-16
0.0074565 7.17084e-16
0.0074655 1.94481e-16
0.0074745 4.97972e-16
0.0074835 2.86848e-16
0.0074925 1.70365e-15
0.0075015 1.41301e-16
0.0075105 7.34002e-16
0.0075195 1.81591e-16
0.0075285 1.04716e-15
0.0075375 1.46694e-15
0.0075465 3.03537e-17
0.0075555 7.42089e-16
0.0075645 8.04363e-17
0.0075735 2.26582e-15
0.0075825 7.01542e-16
0.0075915 8.26596e-16
0.0076005 1.39701e-15
0.0076095 1.3555e-16
0.0076185 1.69877e-15
0.0076275 4.77476e-17
0.0076365 1.75098e-15
0.0076455 1.00845e-15
0.0076545 3.22912e-16
0.0076635 9.21422e-16
0.0076725 8.4988e-17
0.0076815 1.06367e-15
0.0076905 1.63337e-17
0.0076995 1.15739e-15
0.0077085 3.21285e-16
0.0077175 5.02092e-16
0.0077265 2.21226e-16
0.0077355 1.53221e-15
0.0077445 3.77462e-15
0.0077535 3.66788e-16
0.0077625 5.80229e-16
0.0077715 1.30602e-17
0.0077805 2.9188e-15
0.0077895 3.13557e-15
0.0077985 1.30381e-17
0.0078075 1.01976e-15
0.0078165 1.57627e-17
0.0078255 1.73563e-15
0.0078345 4.4974e-16
0.0078435 9.72065e-16
0.0078525 1.3163e-15
0.0078615 1.22026e-16
0.0078705 1.23176e-15
0.0078795 1.79859e-17
0.0078885 9.14066e-16
0.0078975 4.24836e-17
0.0079065 1.56196e-15
0.0079155 1.05669e-15
0.0079245 3.01846e-16
0.0079335 8.15884e-16
0.0079425 5.44364e-16
0.0079515 3.95487e-15
0.0079605 8.57228e-16
0.0079695 9.6609e-16
0.0079785 9.45417e-16
0.0079875 6.17375e-16
0.0079965 2.18637e-15
0.0080055 1.4221e-17
0.0080145 1.80248e-15
0.0080235 3.69851e-16
0.0080325 8.43432e-16
0.0080415 3.87405e-16
0.0080505 1.4735e-15
0.0080595 3.10683e-15
0.0080685 1.73777e-17
0.0080775 2.19053e-15
0.0080865 4.9733e-16
0.0080955 1.12675e-15
0.0081045 1.13338e-15
0.0081135 3.84767e-16
0.0081225 1.75851e-15
0.0081315 2.17441e-17
0.0081405 8.2197e-16
0.0081495 5.95835e-17
0.0081585 3.76634e-15
0.0081675 2.81683e-15
0.0081765 6.92652e-17
0.0081855 9.85924e-16
0.0081945 1.77165e-16
0.0082035 2.643e-15
0.0082125 4.59425e-16
0.0082215 1.15798e-15
0.0082305 1.03936e-15
0.0082395 3.8385e-16
0.0082485 1.40638e-15
0.0082575 4.57798e-17
0.0082665 1.65221e-15
0.0082755 1.53967e-16
0.0082845 1.1558e-15
0.0082935 4.84961e-16
0.0083025 9.62758e-16
0.0083115 1.47529e-15
0.0083205 4.0734e-16
0.0083295 4.04053e-15
0.0083385 1.06956e-15
0.0083475 5.10862e-16
0.0083565 3.18395e-16
0.0083655 1.29153e-15
0.0083745 2.56351e-15
0.0083835 1.55944e-17
0.0083925 2.14558e-15
0.0084015 6.16785e-16
0.0084105 4.55634e-16
0.0084195 2.34649e-16
0.0084285 1.09516e-15
0.0084375 1.98917e-15
0.0084465 1.65708e-17
0.0084555 1.2766e-15
0.0084645 7.30652e-17
0.0084735 1.17463e-15
0.0084825 3.33816e-16
0.0084915 1.49361e-15
0.0085005 2.90704e-15
0.0085095 9.2544e-17
0.0085185 6.06643e-16
0.0085275 5.06529e-17
0.0085365 2.64988e-15
0.0085455 1.54753e-15
0.0085545 2.25042e-16
0.0085635 8.96105e-16
0.0085725 2.20095e-16
0.0085815 2.34526e-15
0.0085905 4.11332e-16
0.0085995 8.07122e-16
0.0086085 7.67879e-16
0.0086175 1.46684e-16
0.0086265 4.6515e-16
0.0086355 1.77711e-16
0.0086445 9.37021e-16
0.0086535 2.87282e-17
0.0086625 1.56212e-15
0.0086715 3.61789e-16
0.0086805 8.90251e-16
0.0086895 8.60311e-16
0.0086985 6.99697e-16
0.0087075 3.3985e-15
0.0087165 4.17191e-16
0.0087255 1.13559e-15
0.0087345 7.46242e-16
0.0087435 6.39426e-16
0.0087525 1.90785e-15
0.0087615 2.58413e-17
0.0087705 1.24805e-15
0.0087795 4.41664e-16
0.0087885 2.21814e-16
0.0087975 1.64904e-16
0.0088065 3.76074e-16
0.0088155 5.44509e-16
0.0088245 1.51823e-16
0.0088335 1.11323e-15
0.0088425 1.10859e-16
0.0088515 3.60677e-16
0.0088605 2.53077e-17
0.0088695 1.34095e-15
0.0088785 1.74121e-15
0.0088875 5.26913e-17
0.0088965 2.39572e-16
0.0089055 9.84218e-17
0.0089145 1.4348e-15
0.0089235 5.69922e-16
0.0089325 2.04987e-16
0.0089415 3.80387e-16
0.0089505 1.71881e-16
0.0089595 8.99052e-16
0.0089685 5.15501e-17
0.0089775 4.6029e-16
0.0089865 1.40752e-16
0.0089955 2.28038e-16
0.0090045 9.96911e-17
0.0090135 5.29612e-16
0.0090225 8.78133e-16
0.0090315 4.79823e-17
0.0090405 1.19542e-15
0.0090495 2.72088e-16
0.0090585 3.87229e-16
0.0090675 2.20447e-16
0.0090765 8.10226e-16
0.0090855 2.27559e-15
0.0090945 2.04741e-16
0.0091035 9.16572e-16
0.0091125 9.71758e-16
0.0091215 1.70731e-17
0.0091305 2.33324e-16
0.0091395 2.40082e-17
0.0091485 3.06451e-16
0.0091575 5.24577e-17
0.0091665 7.03002e-17
0.0091755 2.27101e-17
0.0091845 3.69753e-16
0.0091935 1.36216e-16
0.0092025 2.12914e-16
0.0092115 4.43184e-16
0.0092205 2.37456e-17
0.0092295 5.23954e-17
0.0092385 2.29936e-16
0.0092475 1.25212e-15
0.0092565 4.83559e-16
0.0092655 1.08212e-16
0.0092745 1.7432e-16
0.0092835 3.68164e-16
0.0092925 1.57935e-15
0.0093015 4.13148e-16
0.0093105 1.38534e-16
0.0093195 9.9509e-17
0.0093285 3.86642e-16
0.0093375 7.86305e-16
0.0093465 1.73932e-17
0.0093555 6.73231e-16
0.0093645 2.4676e-16
0.0093735 2.44091e-16
0.0093825 6.2937e-16
0.0093915 9.85496e-17
0.0094005 1.74328e-17
0.0094095 2.10564e-16
0.0094185 8.31138e-16
0.0094275 4.15165e-16
0.0094365 1.7554e-17
0.0094455 3.69652e-17
0.0094545 8.7624e-17
0.0094635 2.11101e-16
0.0094725 1.95546e-17
0.0094815 1.59343e-16
0.0094905 1.10986e-16
0.0094995 1.81541e-17
0.0095085 2.01878e-17
0.0095175 1.06166e-16
0.0095265 8.76856e-17
0.0095355 2.64762e-17
0.0095445 1.07335e-16
0.0095535 4.55046e-17
0.0095625 2.85803e-17
0.0095715 1.78079e-16
0.0095805 4.7761e-16
0.0095895 2.25642e-16
0.0095985 2.00943e-17
0.0096075 5.00029e-17
0.0096165 4.3145e-17
0.0096255 1.53467e-16
0.0096345 2.40237e-17
0.0096435 1.0473e-16
0.0096525 6.20479e-17
0.0096615 3.29299e-17
0.0096705 2.07487e-17
0.0096795 2.55823e-16
0.0096885 6.631e-16
0.0096975 1.82575e-16
0.0097065 1.2379e-16
0.0097155 4.76775e-16
0.0097245 2.74388e-16
0.0097335 7.15293e-17
0.0097425 3.83944e-17
0.0097515 3.8273e-17
0.0097605 3.83508e-17
0.0097695 8.92362e-17
0.0097785 2.6186e-16
0.0097875 2.39181e-16
0.0097965 1.85579e-17
0.0098055 2.78914e-16
0.0098145 2.60115e-16
0.0098235 1.87491e-17
0.0098325 9.12609e-17
0.0098415 1.87323e-17
0.0098505 1.32484e-16
0.0098595 4.75444e-17
0.0098685 1.61325e-16
0.0098775 4.40576e-16
0.0098865 1.88736e-16
0.0098955 4.58623e-17
0.0099045 1.8087e-16
0.0099135 8.84807e-16
0.0099225 1.35519e-15
0.0099315 7.75593e-16
0.0099405 1.97833e-16
0.0099495 5.30228e-17
0.0099585 3.59153e-17
0.0099675 2.0626e-17
0.0099765 3.62561e-17
0.0099855 7.97739e-17
0.0099945 7.26651e-17
0.0100035 4.34381e-17
0.0100125 3.12151e-17
0.0100215 3.1788e-17
0.0100305 3.42696e-17
0.0100395 2.27633e-17
0.0100485 4.20543e-17
0.0100575 2.12748e-16
0.0100665 3.42913e-16
0.0100755 1.64003e-16
0.0100845 2.29408e-17
0.0100935 2.14215e-17
0.0101025 2.84696e-17
0.0101115 3.15256e-17
0.0101205 6.77253e-17
0.0101295 3.21642e-16
0.0101385 1.74612e-16
0.0101475 4.0655e-17
0.0101565 2.04681e-16
0.0101655 4.07547e-17
0.0101745 8.64029e-17
0.0101835 6.16294e-17
0.0101925 6.14684e-17
0.0102015 1.82652e-16
0.0102105 7.93197e-17
0.0102195 5.47528e-17
0.0102285 3.00559e-16
0.0102375 8.15152e-16
0.0102465 6.27644e-16
0.0102555 1.44622e-16
0.0102645 5.38204e-17
0.0102735 1.62151e-16
0.0102825 2.06966e-16
0.0102915 2.40949e-17
0.0103005 1.27809e-16
0.0103095 1.05164e-16
0.0103185 2.20706e-17
0.0103275 3.48379e-17
0.0103365 2.48432e-16
0.0103455 2.80906e-16
0.0103545 2.02441e-17
0.0103635 2.20361e-16
0.0103725 1.29606e-16
0.0103815 2.22325e-17
0.0103905 2.03602e-17
0.0103995 1.99185e-16
0.0104085 3.82185e-16
0.0104175 9.48925e-17
0.0104265 2.07089e-17
0.0104355 4.81235e-17
0.0104445 1.85998e-16
0.0104535 2.33552e-17
0.0104625 4.76461e-16
0.0104715 8.14284e-16
0.0104805 1.06364e-16
0.0104895 1.6848e-16
0.0104985 2.01702e-16
0.0105075 2.80525e-17
0.0105165 2.43927e-17
0.0105255 1.68079e-16
0.0105345 2.63583e-16
0.0105435 9.16652e-17
0.0105525 9.19632e-17
0.0105615 5.91761e-16
0.0105705 1.22684e-15
0.0105795 4.23657e-16
0.0105885 9.26979e-17
0.0105975 4.62831e-16
0.0106065 1.53308e-16
0.0106155 3.46508e-17
0.0106245 1.71705e-16
0.0106335 4.26107e-16
0.0106425 7.82253e-17
0.0106515 2.044e-16
0.0106605 2.7686e-16
0.0106695 2.135e-17
0.0106785 8.84303e-17
0.0106875 6.24667e-17
0.0106965 4.94215e-16
0.0107055 2.50964e-16
0.0107145 2.58586e-17
0.0107235 4.20384e-17
0.0107325 6.17576e-17
0.0107415 4.98438e-17
0.0107505 1.85657e-16
0.0107595 4.5851e-16
0.0107685 2.34346e-17
0.0107775 5.2321e-16
0.0107865 4.00113e-16
0.0107955 2.40705e-17
0.0108045 4.78794e-17
0.0108135 2.60319e-16
0.0108225 6.74329e-16
0.0108315 3.53486e-17
0.0108405 4.5447e-16
0.0108495 1.001e-16
0.0108585 8.40762e-16
0.0108675 1.8877e-15
0.0108765 3.29815e-16
0.0108855 1.65675e-16
0.0108945 1.50216e-16
0.0109035 3.8362e-17
0.0109125 2.24016e-17
0.0109215 2.70782e-16
0.0109305 1.58567e-16
0.0109395 2.67897e-16
0.0109485 7.13895e-16
0.0109575 2.48483e-17
0.0109665 1.13938e-15
0.0109755 6.48881e-16
0.0109845 1.45071e-16
0.0109935 6.65513e-16
0.0110025 5.7577e-17
0.0110115 5.49137e-17
0.0110205 2.69725e-16
0.0110295 1.24863e-15
0.0110385 1.06537e-16
0.0110475 1.61989e-15
0.0110565 2.46855e-15
0.0110655 4.88199e-17
0.0110745 1.28796e-15
0.0110835 6.58104e-16
0.0110925 9.65809e-17
0.0111015 1.12247e-16
0.0111105 5.20178e-16
0.0111195 1.20565e-15
0.0111285 6.91761e-17
0.0111375 2.65234e-16
0.0111465 6.90215e-17
0.0111555 2.08538e-15
0.0111645 1.99027e-15
0.0111735 3.57992e-17
0.0111825 5.29581e-16
0.0111915 8.1387e-17
0.0112005 1.49447e-16
0.0112095 3.32815e-17
0.0112185 8.48692e-16
0.0112275 3.7512e-16
0.0112365 4.54095e-16
0.0112455 1.33401e-15
0.0112545 5.84169e-17
0.0112635 6.99687e-16
0.0112725 2.45922e-16
0.0112815 4.41567e-16
0.0112905 8.77207e-16
0.0112995 4.24631e-17
0.0113085 1.54721e-16
0.0113175 4.33029e-17
0.0113265 5.23706e-16
0.0113355 1.08556e-16
0.0113445 3.61512e-16
0.0113535 5.11767e-16
0.0113625 2.47199e-17
0.0113715 1.09011e-16
0.0113805 2.74412e-17
0.0113895 6.86214e-17
0.0113985 2.1634e-16
0.0114075 1.11863e-15
0.0114165 4.02767e-16
0.0114255 1.15948e-16
0.0114345 1.33826e-16
0.0114435 3.96686e-16
0.0114525 1.15774e-15
0.0114615 6.07941e-17
0.0114705 8.42001e-16
0.0114795 6.61734e-16
0.0114885 4.93518e-17
0.0114975 2.02836e-16
0.0115065 1.70997e-16
0.0115155 8.29452e-16
0.0115245 3.59681e-17
0.0115335 1.179e-15
0.0115425 1.4221e-15
0.0115515 9.85079e-17
0.0115605 1.00591e-16
0.0115695 3.93645e-17
0.0115785 3.76298e-16
0.0115875 1.22164e-16
0.0115965 6.56446e-17
0.0116055 3.46399e-17
0.0116145 1.49652e-16
0.0116235 8.48435e-17
0.0116325 2.1021e-16
0.0116415 4.60115e-16
0.0116505 2.38578e-17
0.0116595 5.55032e-16
0.0116685 4.36669e-16
0.0116775 6.37008e-17
0.0116865 1.39196e-16
0.0116955 8.71644e-16
0.0117045 8.99625e-16
0.0117135 6.0822e-17
0.0117225 1.0149e-16
0.0117315 5.34035e-17
0.0117405 5.39164e-16
0.0117495 1.14949e-16
0.0117585 4.84096e-16
0.0117675 8.72156e-16
0.0117765 7.28105e-17
0.0117855 7.31747e-17
0.0117945 1.07146e-16
0.0118035 6.76946e-16
0.0118125 8.83121e-17
0.0118215 6.4715e-16
0.0118305 7.57179e-16
0.0118395 3.82523e-17
0.0118485 3.92797e-16
0.0118575 6.05409e-17
0.0118665 1.10785e-15
0.0118755 2.70148e-16
0.0118845 7.46962e-16
0.0118935 1.31845e-15
0.0119025 2.51525e-17
0.0119115 1.00074e-15
0.0119205 2.5187e-16
0.0119295 3.441e-16
0.0119385 2.63271e-16
0.0119475 3.85819e-16
0.0119565 1.26181e-15
0.0119655 2.04806e-16
0.0119745 1.0683e-16
0.0119835 2.46944e-17
0.0119925 3.06998e-16
0.0120015 4.98591e-17
0.0120105 6.01841e-16
0.0120195 6.79096e-16
0.0120285 6.64301e-17
0.0120375 7.07763e-16
0.0120465 4.55565e-17
0.0120555 6.30166e-16
0.0120645 2.72672e-16
0.0120735 3.63253e-16
0.0120825 6.68678e-16
0.0120915 6.57161e-17
0.0121005 8.27782e-16
0.0121095 4.36851e-17
0.0121185 1.19972e-15
0.0121275 1.19743e-15
0.0121365 3.11734e-17
0.0121455 6.33232e-16
0.0121545 8.8973e-17
0.0121635 2.2465e-16
0.0121725 7.50823e-17
0.0121815 1.92528e-16
0.0121905 1.13253e-16
0.0121995 2.29978e-16
0.0122085 4.67163e-16
0.0122175 2.53604e-17
0.0122265 2.15218e-16
0.0122355 3.03916e-17
0.0122445 6.03921e-16
0.0122535 3.06576e-16
0.0122625 1.07799e-16
0.0122715 1.95672e-16
0.0122805 1.67745e-16
0.0122895 7.47971e-16
0.0122985 5.67139e-17
0.0123075 6.49228e-16
0.0123165 6.33267e-16
0.0123255 2.75775e-17
0.0123345 2.34374e-16
0.0123435 3.15858e-17
0.0123525 4.43604e-17
0.0123615 2.2003e-16
0.0123705 1.05943e-15
0.0123795 3.72515e-16
0.0123885 1.89522e-16
0.0123975 4.28732e-16
0.0124065 5.20457e-17
0.0124155 6.64638e-16
0.0124245 1.98e-16
0.0124335 1.09706e-16
0.0124425 6.84545e-17
0.0124515 2.41574e-16
0.0124605 3.50144e-16
0.0124695 5.28022e-17
0.0124785 4.60299e-16
0.0124875 3.67003e-17
0.0124965 6.77764e-16
0.0125055 7.89016e-16
0.0125145 3.18849e-17
0.0125235 2.88011e-16
0.0125325 1.43622e-16
0.0125415 2.69585e-17
0.0125505 7.89377e-17
0.0125595 4.0714e-16
0.0125685 3.0277e-16
0.0125775 3.07352e-17
0.0125865 3.18277e-17
0.0125955 6.48227e-17
0.0126045 8.35612e-17
0.0126135 9.0487e-17
0.0126225 4.81758e-16
0.0126315 2.06379e-16
0.0126405 3.55641e-17
0.0126495 2.73574e-17
0.0126585 4.03151e-16
0.0126675 8.90964e-16
0.0126765 1.94471e-16
0.0126855 1.12043e-16
0.0126945 1.18627e-16
0.0127035 9.88338e-17
0.0127125 3.90687e-16
0.0127215 1.83677e-16
0.0127305 6.49157e-17
0.0127395 2.25986e-16
0.0127485 6.62478e-16
0.0127575 4.9661e-16
0.0127665 6.6791e-17
0.0127755 3.51949e-17
0.0127845 2.65919e-17
0.0127935 3.58229e-17
0.0128025 2.80211e-17
0.0128115 6.2435e-17
0.0128205 4.5904e-17
0.0128295 3.43177e-17
0.0128385 9.98457e-17
0.0128475 2.11556e-16
0.0128565 4.29423e-17
0.0128655 2.81103e-16
0.0128745 6.71549e-16
0.0128835 2.62074e-16
0.0128925 3.35749e-17
0.0129015 6.0749e-17
0.0129105 3.47925e-16
0.0129195 2.94529e-16
0.0129285 3.56757e-17
0.0129375 3.60828e-16
0.0129465 1.75353e-16
0.0129555 4.41959e-17
0.0129645 8.18583e-17
0.0129735 5.87291e-17
0.0129825 2.697e-16
0.0129915 1.01028e-16
0.0130005 6.3922e-17
0.0130095 1.57298e-16
0.0130185 5.51911e-17
0.0130275 2.72509e-17
0.0130365 3.09803e-17
0.0130455 8.45828e-17
0.0130545 1.08137e-16
0.0130635 5.22604e-17
0.0130725 2.99396e-17
0.0130815 1.01757e-16
0.0130905 1.78973e-16
0.0130995 8.23452e-17
0.0131085 6.10416e-17
0.0131175 3.21809e-16
0.0131265 2.81123e-16
0.0131355 4.77024e-17
0.0131445 3.89644e-17
0.0131535 2.78112e-17
0.0131625 1.38128e-16
0.0131715 2.60728e-16
0.0131805 1.90525e-16
0.0131895 1.04051e-16
0.0131985 6.28143e-17
0.0132075 2.94808e-17
0.0132165 5.68328e-17
0.0132255 1.07607e-16
0.0132345 5.48499e-17
0.0132435 3.0523e-17
0.0132525 5.62293e-17
0.0132615 6.06183e-17
0.0132705 8.60568e-17
0.0132795 1.51158e-16
0.0132885 1.28736e-16
0.0132975 2.9873e-17
0.0133065 1.05465e-16
0.0133155 1.94159e-16
0.0133245 1.2745e-16
0.0133335 5.42377e-17
0.0133425 2.99987e-17
0.0133515 3.09954e-17
0.0133605 4.62089e-17
0.0133695 3.98156e-17
0.0133785 2.79065e-17
0.0133875 2.81407e-17
0.0133965 6.3377e-17
0.0134055 2.27891e-16
0.0134145 2.66107e-16
0.0134235 1.00392e-16
0.0134325 2.89615e-17
0.0134415 2.84499e-17
0.0134505 3.02103e-17
0.0134595 2.86226e-17
0.0134685 4.72795e-17
0.0134775 9.99038e-17
0.0134865 6.09741e-17
0.0134955 4.12548e-17
0.0135045 1.97867e-16
0.0135135 2.40303e-16
0.0135225 5.97008e-17
0.0135315 8.12587e-17
0.0135405 1.90903e-16
0.0135495 6.70163e-17
0.0135585 4.15239e-17
0.0135675 4.84619e-17
0.0135765 4.00147e-17
0.0135855 7.3201e-17
0.0135945 3.28226e-17
0.0136035 1.61454e-16
0.0136125 5.96294e-17
0.0136215 1.68223e-16
0.0136305 3.67674e-16
0.0136395 3.62968e-17
0.0136485 3.68087e-16
0.0136575 5.01467e-16
0.0136665 9.16717e-17
0.0136755 2.92134e-17
0.0136845 6.60854e-17
0.0136935 2.08418e-16
0.0137025 4.92899e-17
0.0137115 1.56978e-16
0.0137205 1.72995e-16
0.0137295 4.51367e-17
0.0137385 2.20107e-16
0.0137475 3.53439e-17
0.0137565 2.42198e-16
0.0137655 2.44742e-16
0.0137745 2.89997e-17
0.0137835 1.05429e-16
0.0137925 2.97481e-17
0.0138015 7.45251e-17
0.0138105 2.89277e-17
0.0138195 1.91551e-16
0.0138285 1.68931e-16
0.0138375 2.98476e-17
0.0138465 6.43641e-17
0.0138555 5.7513e-17
0.0138645 3.43554e-16
0.0138735 2.60235e-16
0.0138825 4.0217e-17
0.0138915 3.07347e-17
0.0139005 4.13401e-17
0.0139095 5.49458e-17
0.0139185 3.62663e-17
0.0139275 1.3807e-16
0.0139365 1.22568e-16
0.0139455 6.28248e-17
0.0139545 7.56052e-17
0.0139635 8.87331e-17
0.0139725 3.21198e-17
0.0139815 3.44963e-16
0.0139905 6.1205e-16
0.0139995 2.33969e-16
0.0140085 2.98155e-17
0.0140175 3.80142e-17
0.0140265 2.9272e-17
0.0140355 2.93278e-17
0.0140445 4.07155e-17
0.0140535 2.93051e-17
0.0140625 1.11188e-16
0.0140715 1.74125e-16
0.0140805 5.77851e-17
0.0140895 3.12014e-17
0.0140985 1.06985e-16
0.0141075 3.08267e-16
0.0141165 1.43281e-16
0.0141255 3.27771e-17
0.0141345 2.94609e-17
0.0141435 3.01916e-16
0.0141525 5.16822e-16
0.0141615 3.16385e-17
0.0141705 5.66953e-16
0.0141795 4.17848e-16
0.0141885 9.13894e-17
0.0141975 5.31012e-16
0.0142065 5.22882e-17
0.0142155 4.15929e-16
0.0142245 3.3818e-16
0.0142335 6.53831e-17
0.0142425 3.56119e-16
0.0142515 7.78826e-17
0.0142605 4.68217e-17
0.0142695 4.58374e-17
0.0142785 3.09966e-16
0.0142875 1.36276e-16
0.0142965 1.08238e-16
0.0143055 1.87354e-16
0.0143145 6.81902e-17
0.0143235 4.97107e-16
0.0143325 2.00356e-16
0.0143415 6.15306e-17
0.0143505 1.0425e-16
0.0143595 4.43685e-17
0.0143685 1.20448e-16
0.0143775 3.09892e-17
0.0143865 4.98448e-17
0.0143955 4.7228e-17
0.0144045 1.75255e-16
0.0144135 3.60924e-17
0.0144225 2.21164e-16
0.0144315 1.88426e-16
0.0144405 7.0951e-17
0.0144495 3.2399e-16
0.0144585 6.33315e-17
0.0144675 1.1444e-16
0.0144765 6.11292e-17
0.0144855 1.12386e-16
0.0144945 1.50932e-16
0.0145035 3.27835e-17
0.0145125 6.78776e-17
0.0145215 8.93414e-17
0.0145305 4.35454e-16
0.0145395 1.64087e-16
0.0145485 7.05198e-17
0.0145575 8.77509e-17
0.0145665 1.15419e-16
0.0145755 4.18043e-16
0.0145845 1.55057e-16
0.0145935 3.03644e-17
0.0146025 3.22365e-17
0.0146115 5.59215e-17
0.0146205 8.91532e-17
0.0146295 8.18329e-16
0.0146385 8.31568e-16
0.0146475 4.21582e-17
0.0146565 3.33807e-16
0.0146655 1.49039e-16
0.0146745 9.45068e-17
0.0146835 1.19344e-16
0.0146925 8.72266e-17
0.0147015 3.02324e-16
0.0147105 6.40433e-17
0.0147195 5.59505e-17
0.0147285 3.29388e-17
0.0147375 1.91828e-16
0.0147465 7.61074e-17
0.0147555 1.33103e-16
0.0147645 1.72858e-16
0.0147735 6.4485e-17
0.0147825 3.23652e-16
0.0147915 5.52917e-17
0.0148005 1.67095e-16
0.0148095 7.68511e-17
0.0148185 1.66812e-16
0.0148275 2.02743e-16
0.0148365 9.11631e-17
0.0148455 4.52986e-16
0.0148545 4.73075e-17
0.0148635 4.41202e-16
0.0148725 3.68893e-16
0.0148815 8.06474e-17
0.0148905 4.80625e-16
0.0148995 8.87988e-17
0.0149085 1.37269e-16
0.0149175 7.46251e-17
0.0149265 1.22689e-16
0.0149355 1.54666e-16
0.0149445 5.65087e-17
0.0149535 2.72046e-16
0.0149625 9.14223e-17
0.0149715 3.62152e-17
0.0149805 3.57478e-17
0.0149895 1.92733e-16
0.0149985 1.50999e-16
0.0150075 3.23136e-17
0.0150165 6.22087e-17
0.0150255 3.34632e-17
0.0150345 4.92597e-17
0.0150435 6.16261e-17
0.0150525 1.94152e-16
0.0150615 4.10681e-17
0.0150705 1.72202e-16
0.0150795 1.54032e-16
0.0150885 4.06167e-17
0.0150975 7.84401e-17
0.0151065 9.38616e-17
0.0151155 4.23819e-16
0.0151245 1.27068e-16
0.0151335 1.07952e-16
0.0151425 1.16377e-16
0.0151515 9.93812e-17
0.0151605 3.21174e-16
0.0151695 4.76769e-17
0.0151785 1.57499e-16
0.0151875 8.66422e-17
0.0151965 7.56397e-17
0.0152055 8.41257e-17
0.0152145 7.8534e-17
0.0152235 2.02697e-16
0.0152325 3.18463e-17
0.0152415 1.83746e-16
0.0152505 8.54685e-17
0.0152595 8.3623e-17
0.0152685 1.45082e-16
0.0152775 3.69327e-17
0.0152865 3.14432e-17
0.0152955 1.07762e-16
0.0153045 1.44645e-16
0.0153135 5.32539e-17
0.0153225 4.34333e-16
0.0153315 2.24206e-16
0.0153405 8.43486e-17
0.0153495 3.12452e-16
0.0153585 6.42196e-17
0.0153675 7.76643e-17
0.0153765 5.62565e-17
0.0153855 3.22774e-17
0.0153945 6.38355e-17
0.0154035 3.50497e-16
0.0154125 2.77228e-16
0.0154215 3.30603e-17
0.0154305 1.43539e-16
0.0154395 3.29008e-17
0.0154485 1.42253e-16
0.0154575 7.18264e-17
0.0154665 5.24242e-17
0.0154755 3.39057e-17
0.0154845 1.88218e-16
0.0154935 2.05434e-16
0.0155025 6.66507e-17
0.0155115 3.92292e-16
0.0155205 5.2967e-17
0.0155295 4.38832e-16
0.0155385 4.94234e-16
0.0155475 4.12456e-17
0.0155565 4.60169e-16
0.0155655 1.23356e-16
0.0155745 1.80828e-16
0.0155835 2.74939e-16
0.0155925 3.51668e-17
0.0156015 5.08247e-17
0.0156105 6.22928e-17
0.0156195 2.03092e-16
0.0156285 5.64993e-17
0.0156375 6.8152e-17
0.0156465 3.88303e-17
0.0156555 1.10919e-16
0.0156645 1.30946e-16
0.0156735 3.22147e-17
0.0156825 3.43901e-17
0.0156915 1.04204e-16
0.0157005 1.88693e-16
0.0157095 3.21596e-17
0.0157185 1.75991e-16
0.0157275 3.21123e-17
0.0157365 6.07708e-16
0.0157455 8.20209e-16
0.0157545 4.88926e-17
0.0157635 3.33585e-16
0.0157725 1.34111e-16
0.0157815 1.39626e-16
0.0157905 1.43003e-16
0.0157995 1.47889e-16
0.0158085 4.32719e-16
0.0158175 3.38607e-17
0.0158265 8.3534e-16
0.0158355 7.54751e-16
0.0158445 3.21819e-17
0.0158535 3.78895e-16
0.0158625 1.76575e-16
0.0158715 3.64579e-17
0.0158805 3.69761e-17
0.0158895 8.06821e-17
0.0158985 9.67322e-17
0.0159075 3.24795e-17
0.0159165 3.42619e-17
0.0159255 6.04328e-17
0.0159345 7.92257e-17
0.0159435 4.22498e-17
0.0159525 1.52701e-16
0.0159615 4.88177e-17
0.0159705 8.24881e-17
0.0159795 4.30104e-17
0.0159885 1.98941e-16
0.0159975 3.61281e-16
0.0160065 3.69665e-17
0.0160155 2.77292e-16
0.0160245 1.87732e-16
0.0160335 6.92951e-17
0.0160425 2.44229e-16
0.0160515 4.52191e-17
0.0160605 1.10286e-16
0.0160695 5.24346e-17
0.0160785 1.28505e-16
0.0160875 2.12465e-16
0.0160965 3.26464e-17
0.0161055 2.5734e-16
0.0161145 3.8115e-16
0.0161235 1.59686e-16
0.0161325 3.39075e-17
0.0161415 8.55735e-17
0.0161505 2.02189e-16
0.0161595 2.03266e-16
0.0161685 7.29749e-17
0.0161775 3.29077e-17
0.0161865 3.26247e-17
0.0161955 5.17827e-17
0.0162045 3.95985e-17
0.0162135 8.07719e-17
0.0162225 1.64986e-16
0.0162315 3.31903e-17
0.0162405 3.06261e-16
0.0162495 4.9239e-16
0.0162585 1.06361e-16
0.0162675 9.00542e-17
0.0162765 1.78223e-16
0.0162855 8.25295e-17
0.0162945 5.8055e-17
0.0163035 1.26368e-16
0.0163125 1.71964e-16
0.0163215 4.64066e-17
0.0163305 1.26855e-16
0.0163395 3.19333e-16
0.0163485 1.97955e-16
0.0163575 3.82982e-17
0.0163665 6.82261e-17
0.0163755 7.28595e-17
0.0163845 3.46998e-17
0.0163935 1.59e-16
0.0164025 2.28661e-16
0.0164115 5.93914e-17
0.0164205 1.10414e-16
0.0164295 2.77577e-16
0.0164385 1.45845e-16
0.0164475 3.58749e-17
0.0164565 3.36135e-17
0.0164655 3.85825e-17
0.0164745 3.93506e-17
0.0164835 5.54186e-17
0.0164925 2.01879e-16
0.0165015 2.12402e-16
0.0165105 6.32394e-17
0.0165195 4.40384e-17
0.0165285 8.02867e-17
0.0165375 5.8222e-17
0.0165465 3.4824e-17
0.0165555 3.39168e-17
0.0165645 3.49288e-17
0.0165735 3.74226e-17
0.0165825 7.58428e-17
0.0165915 2.37049e-16
0.0166005 3.5084e-16
0.0166095 1.16537e-16
0.0166185 1.05191e-16
0.0166275 4.2688e-16
0.0166365 2.28019e-16
0.0166455 3.54156e-17
0.0166545 1.15343e-16
0.0166635 4.5177e-17
0.0166725 3.6059e-17
0.0166815 6.27213e-17
0.0166905 3.12759e-16
0.0166995 2.09554e-16
0.0167085 9.33389e-17
0.0167175 7.52649e-16
0.0167265 6.55547e-16
0.0167355 6.98783e-17
0.0167445 1.33096e-16
0.0167535 1.76183e-16
0.0167625 7.47741e-17
0.0167715 5.08627e-17
0.0167805 6.71904e-17
0.0167895 5.73483e-17
0.0167985 3.39816e-17
0.0168075 9.64664e-17
0.0168165 1.88061e-16
0.0168255 2.0041e-16
0.0168345 9.72208e-17
0.0168435 3.86735e-17
0.0168525 1.89388e-16
0.0168615 2.40897e-16
0.0168705 9.20115e-17
0.0168795 3.53985e-17
0.0168885 3.9612e-17
0.0168975 5.88406e-17
0.0169065 3.36845e-17
0.0169155 1.84571e-16
0.0169245 2.83891e-16
0.0169335 4.99787e-17
0.0169425 1.93317e-16
0.0169515 4.09924e-16
0.0169605 2.46286e-16
0.0169695 1.05086e-16
0.0169785 7.5117e-17
0.0169875 4.31121e-17
0.0169965 6.62261e-17
0.0170055 2.18718e-16
0.0170145 1.709e-16
0.0170235 3.79467e-17
0.0170325 5.59591e-17
0.0170415 5.02045e-17
0.0170505 3.37973e-17
0.0170595 3.36172e-17
0.0170685 3.36824e-17
0.0170775 3.41714e-17
0.0170865 3.60488e-17
0.0170955 1.04597e-16
0.0171045 1.99637e-16
0.0171135 1.01921e-16
0.0171225 3.35603e-17
0.0171315 3.56268e-17
0.0171405 6.67006e-17
0.0171495 9.51918e-17
0.0171585 4.36622e-17
0.0171675 2.6032e-16
0.0171765 1.3157e-16
0.0171855 1.25016e-16
0.0171945 4.78942e-16
0.0172035 1.72785e-16
0.0172125 5.85185e-17
0.0172215 1.11444e-16
0.0172305 3.36045e-17
0.0172395 5.70301e-17
0.0172485 5.07043e-17
0.0172575 2.41969e-16
0.0172665 1.61922e-16
0.0172755 4.0252e-17
0.0172845 2.16973e-16
0.0172935 2.63325e-16
0.0173025 1.77012e-16
0.0173115 9.02176e-17
0.0173205 3.35224e-17
0.0173295 1.00035e-16
0.0173385 1.19941e-16
0.0173475 3.43675e-17
0.0173565 8.08787e-17
0.0173655 5.62658e-17
0.0173745 3.52603e-17
0.0173835 3.5394e-17
0.0173925 1.61271e-16
0.0174015 1.78561e-16
0.0174105 5.07559e-17
0.0174195 5.45174e-16
0.0174285 6.23467e-16
0.0174375 1.34577e-16
0.0174465 4.41035e-17
0.0174555 8.68392e-17
0.0174645 1.29438e-16
0.0174735 2.92845e-16
0.0174825 3.35307e-16
0.0174915 6.10849e-17
0.0175005 1.59645e-16
0.0175095 2.90564e-16
0.0175185 1.18788e-16
0.0175275 6.56521e-17
0.0175365 1.35529e-16
0.0175455 1.10089e-16
0.0175545 8.54778e-17
0.0175635 5.42419e-16
0.0175725 3.14789e-16
0.0175815 5.73321e-17
0.0175905 2.85639e-16
0.0175995 6.466e-17
0.0176085 6.65128e-17
0.0176175 4.09016e-17
0.0176265 4.41167e-16
0.0176355 4.04905e-16
0.0176445 5.23218e-17
0.0176535 6.56192e-16
0.0176625 5.452e-16
0.0176715 9.2586e-17
0.0176805 3.41162e-17
0.0176895 3.58772e-17
0.0176985 5.97975e-17
0.0177075 4.23616e-16
0.0177165 6.13177e-16
0.0177255 1.19348e-16
0.0177345 1.04549e-16
0.0177435 1.46026e-16
0.0177525 4.34489e-17
0.0177615 5.43854e-17
0.0177705 2.66686e-16
0.0177795 2.93601e-16
0.0177885 3.45262e-17
0.0177975 3.60928e-16
0.0178065 3.06926e-16
0.0178155 3.88954e-17
0.0178245 6.35567e-17
0.0178335 4.74082e-17
0.0178425 7.06812e-17
0.0178515 2.8405e-16
0.0178605 3.33314e-16
0.0178695 3.6744e-17
0.0178785 2.51631e-16
0.0178875 1.92306e-16
0.0178965 3.64781e-17
0.0179055 5.74052e-17
0.0179145 7.61495e-17
0.0179235 1.36675e-16
0.0179325 7.89469e-17
0.0179415 6.19001e-16
0.0179505 3.16529e-16
0.0179595 9.85807e-17
0.0179685 4.02069e-16
0.0179775 6.81005e-17
0.0179865 1.01678e-16
0.0179955 3.67352e-17
0.0180045 2.0051e-16
0.0180135 1.2946e-16
0.0180225 1.44925e-16
0.0180315 5.36931e-16
0.0180405 2.22858e-16
0.0180495 3.57705e-17
0.0180585 3.77034e-17
0.0180675 6.8633e-17
0.0180765 4.85318e-17
0.0180855 4.37218e-16
0.0180945 4.14848e-16
0.0181035 3.39288e-17
0.0181125 2.3904e-16
0.0181215 6.38982e-17
0.0181305 1.22879e-16
0.0181395 6.85376e-17
0.0181485 1.50394e-16
0.0181575 2.12113e-16
0.0181665 6.63233e-17
0.0181755 5.15227e-16
0.0181845 2.48071e-16
0.0181935 5.10222e-17
0.0182025 1.29604e-16
0.0182115 3.59443e-17
0.0182205 3.42029e-17
0.0182295 1.33135e-16
0.0182385 2.77137e-16
0.0182475 4.57153e-17
0.0182565 2.05763e-16
0.0182655 2.54356e-16
0.0182745 6.32224e-17
0.0182835 4.21891e-17
0.0182925 1.10353e-16
0.0183015 6.53136e-17
0.0183105 1.73173e-16
0.0183195 5.72438e-16
0.0183285 1.59973e-16
0.0183375 1.51594e-16
0.0183465 3.13272e-16
0.0183555 5.55883e-17
0.0183645 3.76991e-17
0.0183735 9.3648e-17
0.0183825 2.70375e-16
0.0183915 4.33493e-17
0.0184005 3.07343e-16
0.0184095 3.55098e-16
0.0184185 3.47977e-17
