-0.0184275 2.22563e-16
-0.0184185 2.84555e-17
-0.0184095 5.36884e-16
-0.0184005 7.8455e-16
-0.0183915 4.49319e-19
-0.0183825 5.38267e-16
-0.0183735 1.94719e-16
-0.0183645 3.24297e-17
-0.0183555 5.89121e-18
-0.0183465 5.19907e-16
-0.0183375 4.60635e-16
-0.0183285 1.0594e-16
-0.0183195 1.14789e-15
-0.0183105 4.40547e-16
-0.0183015 5.38674e-17
-0.0182925 2.09506e-16
-0.0182835 1.43181e-17
-0.0182745 1.62421e-17
-0.0182655 3.59661e-16
-0.0182565 5.00743e-16
-0.0182475 5.99729e-20
-0.0182385 5.00334e-16
-0.0182295 2.84914e-16
-0.0182205 8.62914e-18
-0.0182115 8.24611e-18
-0.0182025 1.82581e-16
-0.0181935 1.41136e-16
-0.0181845 2.54666e-16
-0.0181755 1.14452e-15
-0.0181665 2.01953e-16
-0.0181575 3.33385e-16
-0.0181485 4.1058e-16
-0.0181395 4.01152e-17
-0.0181305 3.32946e-16
-0.0181215 8.62254e-18
-0.0181125 5.26505e-16
-0.0181035 5.89418e-17
-0.0180945 6.28067e-16
-0.0180855 1.02499e-15
-0.0180765 7.28571e-17
-0.0180675 1.0166e-16
-0.0180585 1.37146e-17
-0.0180495 1.41834e-17
-0.0180405 1.8388e-16
-0.0180315 1.02355e-15
-0.0180225 4.1658e-16
-0.0180135 1.39461e-16
-0.0180045 5.14701e-16
-0.0179955 1.65816e-18
-0.0179865 2.45713e-16
-0.0179775 6.35432e-18
-0.0179685 7.95822e-16
-0.0179595 3.8295e-16
-0.0179505 3.40402e-16
-0.0179415 1.38032e-15
-0.0179325 2.0996e-16
-0.0179235 2.36873e-16
-0.0179145 1.90501e-16
-0.0179055 4.73001e-17
-0.0178965 6.03065e-17
-0.0178875 2.22604e-16
-0.0178785 6.24197e-16
-0.0178695 1.40227e-17
-0.0178605 5.16581e-16
-0.0178515 5.6998e-16
-0.0178425 6.72369e-17
-0.0178335 8.68187e-18
-0.0178245 6.89254e-17
-0.0178155 6.6964e-18
-0.0178065 4.08569e-16
-0.0177975 8.55277e-16
-0.0177885 5.84883e-17
-0.0177795 4.33946e-16
-0.0177705 5.57424e-16
-0.0177615 4.10712e-17
-0.0177525 5.41821e-18
-0.0177435 1.59782e-16
-0.0177345 2.62648e-16
-0.0177255 4.69865e-17
-0.0177165 1.06817e-15
-0.0177075 9.66349e-16
-0.0176985 8.39404e-17
-0.0176895 1.26446e-17
-0.0176805 1.70016e-18
-0.0176715 2.25224e-17
-0.0176625 7.0235e-16
-0.0176535 1.43667e-15
-0.0176445 1.78926e-16
-0.0176355 6.19649e-16
-0.0176265 1.10279e-15
-0.0176175 5.85641e-17
-0.0176085 1.37888e-16
-0.0175995 8.59204e-18
-0.0175905 5.81778e-16
-0.0175815 2.22379e-16
-0.0175725 3.35962e-16
-0.0175635 1.1483e-15
-0.0175545 2.11327e-16
-0.0175455 1.43416e-16
-0.0175365 2.59756e-16
-0.0175275 5.09732e-17
-0.0175185 8.67931e-17
-0.0175095 4.70476e-16
-0.0175005 4.14814e-16
-0.0174915 3.59698e-18
-0.0174825 5.04676e-16
-0.0174735 5.12251e-16
-0.0174645 1.54841e-16
-0.0174555 7.81705e-17
-0.0174465 5.3085e-17
-0.0174375 7.13682e-17
-0.0174285 9.92115e-16
-0.0174195 1.27338e-15
-0.0174105 1.36415e-16
-0.0174015 2.37347e-16
-0.0173925 3.24327e-16
-0.0173835 6.78378e-18
-0.0173745 2.80426e-17
-0.0173655 1.54634e-17
-0.0173565 1.17208e-16
-0.0173475 2.38608e-18
-0.0173385 1.63022e-16
-0.0173295 1.97975e-16
-0.0173205 7.96636e-18
-0.0173115 6.36622e-17
-0.0173025 1.86776e-16
-0.0172935 3.42093e-16
-0.0172845 3.79884e-16
-0.0172755 5.33178e-17
-0.0172665 1.9053e-16
-0.0172575 5.22255e-16
-0.0172485 9.45186e-17
-0.0172395 5.15589e-17
-0.0172305 1.63416e-17
-0.0172215 1.56974e-16
-0.0172125 1.77401e-16
-0.0172035 1.03527e-16
-0.0171945 8.90978e-16
-0.0171855 3.50698e-16
-0.0171765 1.27658e-16
-0.0171675 6.05946e-16
-0.0171585 8.75231e-17
-0.0171495 1.05382e-16
-0.0171405 9.91273e-17
-0.0171315 8.15058e-18
-0.0171225 2.45331e-17
-0.0171135 5.80073e-17
-0.0171045 2.95536e-16
-0.0170955 1.56248e-16
-0.0170865 4.18944e-18
-0.0170775 7.32975e-18
-0.0170685 3.29958e-18
-0.0170595 2.70034e-18
-0.0170505 1.30724e-18
-0.0170415 1.43795e-17
-0.0170325 5.26284e-17
-0.0170235 7.20544e-19
-0.0170145 2.19034e-16
-0.0170055 4.35629e-16
-0.0169965 1.28067e-16
-0.0169875 6.19747e-18
-0.0169785 5.46586e-17
-0.0169695 6.65349e-17
-0.0169605 2.39164e-16
-0.0169515 6.40429e-16
-0.0169425 4.31867e-16
-0.0169335 3.20276e-18
-0.0169245 4.98315e-16
-0.0169155 4.43373e-16
-0.0169065 1.66919e-17
-0.0168975 4.87445e-17
-0.0168885 1.07708e-17
-0.0168795 2.87683e-18
-0.0168705 3.5391e-17
-0.0168615 3.07911e-16
-0.0168525 3.36647e-16
-0.0168435 3.0797e-17
-0.0168345 9.35175e-17
-0.0168255 3.14919e-16
-0.0168165 3.32458e-16
-0.0168075 1.78192e-16
-0.0167985 1.72691e-17
-0.0167895 2.53768e-17
-0.0167805 5.43193e-17
-0.0167715 1.52732e-17
-0.0167625 2.44101e-17
-0.0167535 1.90409e-16
-0.0167445 2.80132e-16
-0.0167355 4.52542e-18
-0.0167265 9.77859e-16
-0.0167175 1.7448e-15
-0.0167085 3.58073e-16
-0.0166995 2.11288e-16
-0.0166905 6.23503e-16
-0.0166815 8.44278e-17
-0.0166725 3.33487e-17
-0.0166635 5.44646e-19
-0.0166545 1.55143e-16
-0.0166455 4.81254e-17
-0.0166365 2.53407e-16
-0.0166275 9.05819e-16
-0.0166185 3.4152e-16
-0.0166095 5.2907e-17
-0.0166005 5.32739e-16
-0.0165915 4.03401e-16
-0.0165825 7.5629e-17
-0.0165735 2.2717e-18
-0.0165645 1.52835e-19
-0.0165555 6.19358e-19
-0.0165465 2.4998e-18
-0.0165375 4.39185e-17
-0.0165285 1.17314e-16
-0.0165195 7.16303e-17
-0.0165105 7.64303e-18
-0.0165015 2.44963e-16
-0.0164925 3.33535e-16
-0.0164835 5.79631e-17
-0.0164745 2.26362e-17
-0.0164655 3.74497e-17
-0.0164565 5.03773e-19
-0.0164475 1.54963e-18
-0.0164385 1.52302e-16
-0.0164295 5.35171e-16
-0.0164205 3.07467e-16
-0.0164115 3.46002e-18
-0.0164025 3.0382e-16
-0.0163935 2.77912e-16
-0.0163845 1.19396e-17
-0.0163755 8.5974e-17
-0.0163665 1.36591e-16
-0.0163575 4.84931e-18
-0.0163485 1.74263e-16
-0.0163395 5.07566e-16
-0.0163305 2.55454e-16
-0.0163215 8.34216e-18
-0.0163125 3.0323e-16
-0.0163035 2.57463e-16
-0.0162945 5.37877e-17
-0.0162855 6.05766e-17
-0.0162765 2.96747e-16
-0.0162675 2.81533e-16
-0.0162585 1.65921e-17
-0.0162495 7.36169e-16
-0.0162405 6.98052e-16
-0.0162315 5.55646e-18
-0.0162225 3.17262e-16
-0.0162135 2.06967e-16
-0.0162045 2.33165e-18
-0.0161955 4.27219e-17
-0.0161865 1.03552e-18
-0.0161775 2.38843e-17
-0.0161685 1.47051e-17
-0.0161595 2.2649e-16
-0.0161505 2.92368e-16
-0.0161415 1.08175e-16
-0.0161325 1.27996e-19
-0.0161235 1.61289e-16
-0.0161145 6.55199e-16
-0.0161055 6.75036e-16
-0.0160965 4.35887e-17
-0.0160875 2.67744e-16
-0.0160785 2.93059e-16
-0.0160695 1.85244e-17
-0.0160605 3.06732e-16
-0.0160515 6.78435e-18
-0.0160425 3.76842e-16
-0.0160335 2.05449e-16
-0.0160245 2.13595e-16
-0.0160155 7.9656e-16
-0.0160065 3.88056e-17
-0.0159975 5.28555e-16
-0.0159885 4.87047e-16
-0.0159795 1.1975e-17
-0.0159705 2.41462e-16
-0.0159615 1.20215e-19
-0.0159525 2.35188e-16
-0.0159435 5.32762e-17
-0.0159345 1.13356e-16
-0.0159255 1.42781e-16
-0.0159165 1.21459e-18
-0.0159075 4.22929e-18
-0.0158985 1.24994e-16
-0.0158895 2.13596e-16
-0.0158805 4.90849e-19
-0.0158715 4.87059e-17
-0.0158625 1.48399e-16
-0.0158535 9.70121e-16
-0.0158445 1.7888e-16
-0.0158355 8.90336e-16
-0.0158265 2.02753e-15
-0.0158175 1.08393e-16
-0.0158085 8.96385e-16
-0.0157995 6.47712e-16
-0.0157905 1.02955e-16
-0.0157815 4.2712e-16
-0.0157725 8.2168e-17
-0.0157635 9.92009e-16
-0.0157545 6.10192e-17
-0.0157455 1.1598e-15
-0.0157365 1.53637e-15
-0.0157275 1.88317e-17
-0.0157185 4.76956e-16
-0.0157095 7.94742e-17
-0.0157005 2.36976e-16
-0.0156915 2.07516e-16
-0.0156825 1.46696e-17
-0.0156735 3.55539e-17
-0.0156645 1.00888e-16
-0.0156555 2.12353e-16
-0.0156465 5.89876e-18
-0.0156375 1.92404e-16
-0.0156285 1.61213e-19
-0.0156195 3.06816e-16
-0.0156105 1.14217e-16
-0.0156015 7.6837e-17
-0.0155925 4.16559e-17
-0.0155835 2.98735e-16
-0.0155745 5.1285e-16
-0.0155655 5.15924e-17
-0.0155565 1.15641e-15
-0.0155475 2.97015e-16
-0.0155385 5.76508e-16
-0.0155295 1.17095e-15
-0.0155205 1.18064e-19
-0.0155115 9.45137e-16
-0.0155025 3.47994e-16
-0.0154935 2.00506e-16
-0.0154845 4.36487e-16
-0.0154755 1.76016e-18
-0.0154665 1.59251e-16
-0.0154575 7.68791e-18
-0.0154485 2.56806e-16
-0.0154395 5.11389e-18
-0.0154305 3.25685e-16
-0.0154215 1.26158e-16
-0.0154125 2.52629e-16
-0.0154035 6.86864e-16
-0.0153945 8.48298e-17
-0.0153855 3.58963e-17
-0.0153765 3.54719e-18
-0.0153675 1.28397e-16
-0.0153585 9.94439e-18
-0.0153495 6.49441e-16
-0.0153405 4.21855e-16
-0.0153315 1.2822e-16
-0.0153225 8.73975e-16
-0.0153135 1.32645e-16
-0.0153045 2.52676e-16
-0.0152955 3.22066e-16
-0.0152865 6.80027e-18
-0.0152775 2.52624e-18
-0.0152685 2.3023e-16
-0.0152595 3.04749e-16
-0.0152505 1.22432e-17
-0.0152415 3.46441e-16
-0.0152325 1.45691e-17
-0.0152235 4.04089e-16
-0.0152145 3.14612e-16
-0.0152055 3.59191e-17
-0.0151965 1.70719e-16
-0.0151875 5.90864e-17
-0.0151785 4.89601e-16
-0.0151695 1.72724e-17
-0.0151605 4.79717e-16
-0.0151515 2.90886e-16
-0.0151425 1.40963e-16
-0.0151335 4.45102e-16
-0.0151245 1.7491e-17
-0.0151155 7.46019e-16
-0.0151065 2.45541e-16
-0.0150975 1.26699e-16
-0.0150885 1.7203e-16
-0.0150795 9.49059e-17
-0.0150705 3.72829e-16
-0.0150615 2.69725e-19
-0.0150525 4.35172e-16
-0.0150435 2.08619e-16
-0.0150345 1.60647e-17
-0.0150255 1.79811e-17
-0.0150165 9.46267e-17
-0.0150075 8.71018e-17
-0.0149985 9.10934e-17
-0.0149895 3.4752e-16
-0.0149805 1.76759e-17
-0.0149715 8.29022e-17
-0.0149625 7.19652e-18
-0.0149535 4.23567e-16
-0.0149445 1.5261e-16
-0.0149355 2.2646e-16
-0.0149265 4.77772e-16
-0.0149175 4.62601e-18
-0.0149085 3.22092e-16
-0.0148995 1.39463e-17
-0.0148905 1.08608e-15
-0.0148815 5.40814e-16
-0.0148725 3.08303e-16
-0.0148635 1.13427e-15
-0.0148545 4.80519e-18
-0.0148455 1.04871e-15
-0.0148365 5.19472e-16
-0.0148275 1.70343e-16
-0.0148185 4.59866e-16
-0.0148095 3.89705e-17
-0.0148005 5.71452e-16
-0.0147915 1.17296e-17
-0.0147825 5.30323e-16
-0.0147735 2.04248e-16
-0.0147645 2.68722e-16
-0.0147555 5.37315e-16
-0.0147465 3.3101e-18
-0.0147375 3.55509e-16
-0.0147285 2.29189e-17
-0.0147195 1.59151e-16
-0.0147105 3.16157e-18
-0.0147015 4.30606e-16
-0.0146925 2.53337e-16
-0.0146835 1.55874e-16
-0.0146745 4.44529e-16
-0.0146655 3.04992e-17
-0.0146565 7.29213e-16
-0.0146475 3.34572e-17
-0.0146385 1.30584e-15
-0.0146295 2.21324e-15
-0.0146205 3.67605e-16
-0.0146115 4.14847e-17
-0.0146025 6.07279e-18
-0.0145935 4.81306e-17
-0.0145845 3.92302e-17
-0.0145755 6.49247e-16
-0.0145665 3.18722e-16
-0.0145575 1.0647e-16
-0.0145485 3.40424e-16
-0.0145395 3.90696e-17
-0.0145305 7.64647e-16
-0.0145215 2.27533e-16
-0.0145125 1.18741e-16
-0.0145035 1.30644e-16
-0.0144945 1.05269e-16
-0.0144855 2.57167e-16
-0.0144765 2.93426e-17
-0.0144675 3.98956e-16
-0.0144585 5.73366e-18
-0.0144495 4.88141e-16
-0.0144405 2.27157e-16
-0.0144315 2.46986e-16
-0.0144225 7.43043e-16
-0.0144135 3.06517e-17
-0.0144045 2.49588e-16
-0.0143955 6.97264e-17
-0.0143865 9.04851e-17
-0.0143775 4.11548e-17
-0.0143685 1.08224e-16
-0.0143595 7.8582e-17
-0.0143505 1.51719e-16
-0.0143415 3.16293e-16
-0.0143325 5.95764e-17
-0.0143235 9.1129e-16
-0.0143145 2.35144e-16
-0.0143055 3.19308e-16
-0.0142965 5.26153e-16
-0.0142875 2.86861e-17
-0.0142785 5.85217e-16
-0.0142695 7.38472e-17
-0.0142605 1.38847e-16
-0.0142515 2.50565e-18
-0.0142425 5.27099e-16
-0.0142335 2.74009e-16
-0.0142245 4.18817e-16
-0.0142155 1.40896e-15
-0.0142065 5.6512e-17
-0.0141975 8.73073e-16
-0.0141885 4.43262e-16
-0.0141795 5.12662e-16
-0.0141705 1.78007e-15
-0.0141615 1.49913e-16
-0.0141525 6.95671e-16
-0.0141435 7.3942e-16
-0.0141345 1.73984e-18
-0.0141255 1.19696e-16
-0.0141165 4.03732e-17
-0.0141075 4.68813e-16
-0.0140985 1.75498e-16
-0.0140895 5.55975e-18
-0.0140805 6.30987e-19
-0.0140715 1.58686e-16
-0.0140625 1.74067e-16
-0.0140535 3.06616e-19
-0.0140445 7.66113e-17
-0.0140355 1.78113e-17
-0.0140265 1.06476e-18
-0.0140175 3.9015e-17
-0.0140085 4.77975e-17
-0.0139995 9.57191e-17
-0.0139905 8.43603e-16
-0.0139815 7.2373e-16
-0.0139725 2.07384e-17
-0.0139635 1.74229e-16
-0.0139545 1.71392e-16
-0.0139455 7.61278e-17
-0.0139365 1.80882e-16
-0.0139275 3.4662e-16
-0.0139185 1.07566e-16
-0.0139095 1.42191e-17
-0.0139005 2.48367e-17
-0.0138915 2.32497e-17
-0.0138825 1.70387e-17
-0.0138735 1.78464e-16
-0.0138645 5.89785e-16
-0.0138555 1.10354e-16
-0.0138465 1.22375e-16
-0.0138375 1.14432e-16
-0.0138285 9.41831e-17
-0.0138195 3.51284e-16
-0.0138105 6.98253e-18
-0.0138015 1.99729e-16
-0.0137925 4.8565e-17
-0.0137835 1.01124e-16
-0.0137745 3.24522e-17
-0.0137655 3.564e-16
-0.0137565 8.13848e-16
-0.0137475 4.72303e-17
-0.0137385 3.04326e-16
-0.0137295 1.18213e-16
-0.0137205 2.59978e-16
-0.0137115 5.9925e-16
-0.0137025 1.00393e-17
-0.0136935 2.84516e-16
-0.0136845 1.02708e-16
-0.0136755 3.83825e-17
-0.0136665 1.76353e-18
-0.0136575 5.42423e-16
-0.0136485 8.55412e-16
-0.0136395 6.54695e-18
-0.0136305 7.59542e-16
-0.0136215 7.10591e-16
-0.0136125 8.43055e-19
-0.0136035 2.46049e-16
-0.0135945 2.74868e-17
-0.0135855 1.43447e-16
-0.0135765 1.40109e-16
-0.0135675 2.79805e-18
-0.0135585 3.62295e-17
-0.0135495 4.38825e-17
-0.0135405 4.15698e-16
-0.0135315 3.20314e-16
-0.0135225 3.20896e-19
-0.0135135 2.40604e-16
-0.0135045 3.05868e-16
-0.0134955 3.52753e-17
-0.0134865 7.56405e-17
-0.0134775 2.39929e-16
-0.0134685 1.2682e-16
-0.0134595 8.30396e-18
-0.0134505 2.12839e-19
-0.0134415 1.24472e-17
-0.0134325 2.06506e-17
-0.0134235 1.74299e-17
-0.0134145 2.58733e-16
-0.0134055 3.32571e-16
-0.0133965 6.3016e-17
-0.0133875 1.17258e-17
-0.0133785 2.55571e-17
-0.0133695 1.57017e-19
-0.0133605 1.0503e-17
-0.0133515 2.92899e-19
-0.0133425 1.35113e-17
-0.0133335 6.02428e-17
-0.0133245 1.9701e-16
-0.0133155 4.13284e-16
-0.0133065 3.38387e-16
-0.0132975 2.95151e-17
-0.0132885 7.7223e-17
-0.0132795 1.63167e-16
-0.0132705 6.01809e-17
-0.0132615 1.54341e-17
-0.0132525 1.93337e-17
-0.0132435 3.76085e-18
-0.0132345 5.55685e-17
-0.0132255 2.392e-16
-0.0132165 1.70915e-16
-0.0132075 1.21017e-17
-0.0131985 1.28478e-17
-0.0131895 4.18859e-17
-0.0131805 1.26624e-16
-0.0131715 2.9738e-16
-0.0131625 2.1303e-16
-0.0131535 5.72296e-19
-0.0131445 1.02389e-16
-0.0131355 1.12677e-17
-0.0131265 2.19977e-16
-0.0131175 5.20848e-16
-0.0131085 1.09869e-16
-0.0130995 9.58324e-17
-0.0130905 4.10431e-16
-0.0130815 2.95558e-16
-0.0130725 6.66061e-17
-0.0130635 1.14109e-18
-0.0130545 6.73394e-17
-0.0130455 7.9994e-17
-0.0130365 1.76789e-18
-0.0130275 3.25966e-17
-0.0130185 4.97339e-19
-0.0130095 1.37121e-16
-0.0130005 1.224e-16
-0.0129915 8.03905e-17
-0.0129825 6.92665e-16
-0.0129735 3.23828e-16
-0.0129645 2.73619e-17
-0.0129555 9.59264e-17
-0.0129465 1.71248e-16
-0.0129375 1.01059e-15
-0.0129285 3.0588e-16
-0.0129195 2.11825e-16
-0.0129105 6.56773e-16
-0.0129015 6.75562e-17
-0.0128925 2.88108e-17
-0.0128835 8.36415e-17
-0.0128745 9.48484e-16
-0.0128655 6.97467e-16
-0.0128565 5.76469e-18
-0.0128475 5.19814e-16
-0.0128385 3.32405e-16
-0.0128295 4.31943e-17
-0.0128205 4.92061e-17
-0.0128115 1.5826e-16
-0.0128025 6.24524e-17
-0.0127935 2.35232e-18
-0.0127845 8.47241e-19
-0.0127755 8.99292e-17
-0.0127665 9.87105e-18
-0.0127575 4.09267e-16
-0.0127485 1.10898e-15
-0.0127395 4.0776e-16
-0.0127305 7.98707e-18
-0.0127215 5.0486e-17
-0.0127125 5.32128e-16
-0.0127035 2.89062e-16
-0.0126945 1.47577e-16
-0.0126855 6.08849e-16
-0.0126765 4.84326e-18
-0.0126675 1.28532e-15
-0.0126585 1.05075e-15
-0.0126495 1.5212e-18
-0.0126405 2.33532e-16
-0.0126315 4.16474e-17
-0.0126225 7.92075e-16
-0.0126135 2.54622e-16
-0.0126045 1.44099e-16
-0.0125955 2.94684e-16
-0.0125865 1.82442e-18
-0.0125775 3.29771e-18
-0.0125685 4.21621e-16
-0.0125595 1.14333e-15
-0.0125505 3.40553e-16
-0.0125415 3.81794e-18
-0.0125325 1.24682e-16
-0.0125235 8.70532e-16
-0.0125145 2.08449e-16
-0.0125055 7.6068e-16
-0.0124965 1.74558e-15
-0.0124875 2.52811e-17
-0.0124785 1.19417e-15
-0.0124695 5.83472e-16
-0.0124605 2.81997e-16
-0.0124515 7.01764e-16
-0.0124425 3.38516e-17
-0.0124335 6.31592e-16
-0.0124245 5.86259e-18
-0.0124155 1.20829e-15
-0.0124065 3.3679e-16
-0.0123975 7.42861e-16
-0.0123885 1.23969e-15
-0.0123795 7.44663e-17
-0.0123705 1.9409e-15
-0.0123615 6.94896e-16
-0.0123525 1.02792e-16
-0.0123435 9.57711e-17
-0.0123345 2.70523e-16
-0.0123255 1.55036e-16
-0.0123165 8.40673e-16
-0.0123075 2.35298e-15
-0.0122985 1.3472e-16
-0.0122895 1.1562e-15
-0.0122805 7.09774e-16
-0.0122715 2.93719e-16
-0.0122625 8.12981e-16
-0.0122535 7.7421e-17
-0.0122445 1.28509e-15
-0.0122355 1.29751e-16
-0.0122265 6.20858e-16
-0.0122175 2.6681e-16
-0.0122085 4.69724e-16
-0.0121995 7.40565e-16
-0.0121905 8.31447e-17
-0.0121815 8.85574e-16
-0.0121725 1.25902e-17
-0.0121635 5.15163e-16
-0.0121545 1.25535e-18
-0.0121455 1.61107e-15
-0.0121365 7.52998e-16
-0.0121275 1.03495e-15
-0.0121185 3.25528e-15
-0.0121095 8.09897e-17
-0.0121005 2.10055e-15
-0.0120915 1.0066e-15
-0.0120825 6.32684e-16
-0.0120735 1.38953e-15
-0.0120645 1.5585e-16
-0.0120555 2.22474e-15
-0.0120465 2.11186e-16
-0.0120375 1.15547e-15
-0.0120285 5.44549e-16
-0.0120195 9.592e-16
-0.0120105 2.39167e-15
-0.0120015 7.48114e-17
-0.0119925 6.27214e-16
-0.0119835 3.22259e-17
-0.0119745 5.33947e-16
-0.0119655 7.11444e-18
-0.0119565 1.82026e-15
-0.0119475 1.54629e-15
-0.0119385 2.26964e-16
-0.0119295 1.74826e-15
-0.0119205 1.08584e-19
-0.0119115 2.06888e-15
-0.0119025 4.11438e-16
-0.0118935 2.12148e-15
-0.0118845 3.51935e-15
-0.0118755 3.77083e-19
-0.0118665 2.31673e-15
-0.0118575 4.84084e-16
-0.0118485 9.23949e-16
-0.0118395 7.33488e-16
-0.0118305 5.99807e-16
-0.0118215 1.88619e-15
-0.0118125 6.21454e-20
-0.0118035 1.77533e-15
-0.0117945 7.97096e-16
-0.0117855 6.29239e-17
-0.0117765 5.09432e-18
-0.0117675 1.4951e-15
-0.0117585 2.16302e-15
-0.0117495 1.36772e-17
-0.0117405 9.99176e-16
-0.0117315 2.13897e-16
-0.0117225 3.45995e-16
-0.0117135 1.08725e-16
-0.0117045 8.64173e-16
-0.0116955 1.83095e-15
-0.0116865 2.5675e-16
-0.0116775 1.16958e-17
-0.0116685 2.36509e-16
-0.0116595 1.132e-15
-0.0116505 1.10188e-16
-0.0116415 9.02179e-16
-0.0116325 1.12748e-15
-0.0116235 7.12527e-19
-0.0116145 3.17647e-16
-0.0116055 5.21435e-18
-0.0115965 3.76799e-16
-0.0115875 1.20899e-19
-0.0115785 6.11642e-16
-0.0115695 1.38408e-16
-0.0115605 3.53723e-16
-0.0115515 1.01433e-16
-0.0115425 1.40912e-15
-0.0115335 3.11066e-15
-0.0115245 9.68173e-17
-0.0115155 1.91327e-15
-0.0115065 1.33162e-15
-0.0114975 1.12268e-16
-0.0114885 3.64681e-16
-0.0114795 7.09584e-16
-0.0114705 3.00791e-15
-0.0114615 2.57561e-16
-0.0114525 1.61893e-15
-0.0114435 1.47636e-15
-0.0114345 1.2526e-16
-0.0114255 9.40507e-16
-0.0114165 6.01278e-17
-0.0114075 1.9878e-15
-0.0113985 7.66387e-16
-0.0113895 1.42962e-16
-0.0113805 2.55314e-16
-0.0113715 6.9594e-17
-0.0113625 4.52099e-17
-0.0113535 7.87141e-16
-0.0113445 1.65652e-15
-0.0113355 2.18274e-17
-0.0113265 9.29542e-16
-0.0113175 2.15143e-16
-0.0113085 4.75561e-16
-0.0112995 2.15562e-16
-0.0112905 8.88787e-16
-0.0112815 1.57287e-15
-0.0112725 9.02657e-17
-0.0112635 2.41565e-15
-0.0112545 3.24852e-16
-0.0112455 1.75489e-15
-0.0112365 1.92082e-15
-0.0112275 2.39532e-16
-0.0112185 2.73228e-15
-0.0112095 4.99611e-16
-0.0112005 2.75236e-16
-0.0111915 1.26335e-18
-0.0111825 1.50973e-15
-0.0111735 5.43337e-16
-0.0111645 1.80575e-15
-0.0111555 5.07868e-15
-0.0111465 5.52756e-16
-0.0111375 9.37023e-16
-0.0111285 2.30784e-16
-0.0111195 1.46554e-15
-0.0111105 1.83089e-15
-0.0111015 7.0258e-17
-0.0110925 1.02269e-15
-0.0110835 1.61492e-16
-0.0110745 3.02104e-15
-0.0110655 3.11609e-16
-0.0110565 3.82482e-15
-0.0110475 6.3297e-15
-0.0110385 1.92663e-16
-0.0110295 2.15514e-15
-0.0110205 1.04688e-15
-0.0110115 1.62447e-16
-0.0110025 1.26337e-16
-0.0109935 7.61318e-16
-0.0109845 8.46472e-16
-0.0109755 5.61666e-16
-0.0109665 3.53469e-15
-0.0109575 7.04867e-16
-0.0109485 8.24016e-16
-0.0109395 1.0134e-15
-0.0109305 1.3672e-16
-0.0109215 1.12447e-15
-0.0109125 1.04624e-16
-0.0109035 7.44192e-17
-0.0108945 1.37629e-16
-0.0108855 9.49669e-16
-0.0108765 1.17648e-18
-0.0108675 2.54361e-15
-0.0108585 2.6958e-15
-0.0108495 5.29659e-18
-0.0108405 1.64128e-15
-0.0108315 2.59105e-16
-0.0108225 8.07573e-16
-0.0108135 8.18272e-16
-0.0108045 5.33853e-17
-0.0107955 3.29971e-16
-0.0107865 1.58653e-16
-0.0107775 1.13661e-15
-0.0107685 6.25121e-17
-0.0107595 9.71709e-16
-0.0107505 1.02774e-15
-0.0107415 4.94936e-18
-0.0107325 1.07073e-16
-0.0107235 5.08335e-17
-0.0107145 2.45269e-16
-0.0107055 4.81394e-17
-0.0106965 8.11947e-16
-0.0106875 2.10343e-16
-0.0106785 2.27298e-16
-0.0106695 2.4569e-16
-0.0106605 1.44107e-16
-0.0106515 5.11178e-16
-0.0106425 1.48173e-17
-0.0106335 1.0337e-15
-0.0106245 7.59179e-16
-0.0106155 6.37585e-17
-0.0106065 1.27707e-16
-0.0105975 1.04958e-15
-0.0105885 8.73216e-16
-0.0105795 7.90226e-17
-0.0105705 1.79864e-15
-0.0105615 1.29918e-15
-0.0105525 7.86722e-17
-0.0105435 1.56154e-18
-0.0105345 1.95488e-16
-0.0105255 2.83128e-16
-0.0105165 5.87652e-19
-0.0105075 4.90283e-17
-0.0104985 7.24767e-17
-0.0104895 3.6867e-16
-0.0104805 1.1403e-17
-0.0104715 1.52498e-15
-0.0104625 1.90737e-15
-0.0104535 1.46359e-16
-0.0104445 2.0823e-16
-0.0104355 6.84224e-17
-0.0104265 6.25544e-17
-0.0104175 2.26493e-18
-0.0104085 3.65586e-16
-0.0103995 4.13306e-16
-0.0103905 1.13295e-18
-0.0103815 1.52125e-16
-0.0103725 7.97903e-18
-0.0103635 3.30789e-16
-0.0103545 2.77999e-17
-0.0103455 5.07625e-16
-0.0103365 9.15933e-16
-0.0103275 1.87798e-16
-0.0103185 7.42905e-18
-0.0103095 1.58991e-16
-0.0103005 5.08572e-16
-0.0102915 1.04613e-16
-0.0102825 1.30133e-16
-0.0102735 2.30884e-16
-0.0102645 9.66983e-18
-0.0102555 6.06991e-18
-0.0102465 4.56059e-16
-0.0102375 1.24522e-15
-0.0102285 5.84046e-16
-0.0102195 1.46133e-17
-0.0102105 7.99998e-19
-0.0102015 1.37592e-16
-0.0101925 1.12259e-16
-0.0101835 7.56545e-17
-0.0101745 4.18952e-16
-0.0101655 4.36092e-17
-0.0101565 1.92366e-16
-0.0101475 1.12807e-16
-0.0101385 2.15002e-16
-0.0101295 9.54526e-16
-0.0101205 4.33924e-16
-0.0101115 3.40355e-18
-0.0101025 6.5886e-18
-0.0100935 3.66569e-17
-0.0100845 5.56594e-17
-0.0100755 2.9833e-17
-0.0100665 3.44573e-16
-0.0100575 3.12323e-16
-0.0100485 2.9963e-17
-0.0100395 3.52615e-17
-0.0100305 1.05265e-16
-0.0100215 9.49153e-17
-0.0100125 7.52241e-17
-0.0100035 9.4462e-17
-0.0099945 1.75821e-16
-0.0099855 2.54866e-16
-0.0099765 1.68122e-16
-0.0099675 2.60777e-17
-0.0099585 9.16132e-20
-0.0099495 2.95766e-19
-0.0099405 3.0222e-17
-0.0099315 5.36378e-16
-0.0099225 1.78557e-15
-0.0099135 1.68866e-15
-0.0099045 3.24972e-16
-0.0098955 1.64697e-18
-0.0098865 2.79314e-17
-0.0098775 4.97081e-16
-0.0098685 3.84619e-16
-0.0098595 3.13079e-17
-0.0098505 5.20719e-16
-0.0098415 1.39795e-16
-0.0098325 5.70414e-17
-0.0098235 1.45072e-17
-0.0098145 4.21536e-16
-0.0098055 1.04113e-15
-0.0097965 2.14711e-16
-0.0097875 1.30254e-16
-0.0097785 3.54951e-16
-0.0097695 7.86138e-17
-0.0097605 5.57334e-19
-0.0097515 3.34785e-19
-0.0097425 2.82776e-19
-0.0097335 4.77759e-19
-0.0097245 1.04711e-16
-0.0097155 5.84907e-16
-0.0097065 3.82733e-16
-0.0096975 1.19173e-16
-0.0096885 1.54175e-15
-0.0096795 1.2225e-15
-0.0096705 5.82967e-17
-0.0096615 2.9494e-17
-0.0096525 7.44262e-17
-0.0096435 4.64015e-16
-0.0096345 8.93488e-17
-0.0096255 1.16233e-16
-0.0096165 7.82828e-17
-0.0096075 1.16054e-16
-0.0095985 2.29223e-16
-0.0095895 3.87608e-17
-0.0095805 6.33775e-16
-0.0095715 3.24124e-16
-0.0095625 3.92858e-19
-0.0095535 6.02585e-18
-0.0095445 6.2092e-17
-0.0095355 3.03754e-17
-0.0095265 1.55547e-16
-0.0095175 4.53905e-16
-0.0095085 1.06691e-16
-0.0094995 3.0221e-18
-0.0094905 1.61134e-16
-0.0094815 6.2528e-16
-0.0094725 1.60397e-16
-0.0094635 1.45829e-16
-0.0094545 1.97835e-16
-0.0094455 6.54561e-17
-0.0094365 2.41788e-16
-0.0094275 1.13915e-16
-0.0094185 1.30173e-15
-0.0094095 5.70574e-16
-0.0094005 3.49646e-17
-0.0093915 2.79335e-17
-0.0093825 5.97719e-16
-0.0093735 8.88558e-16
-0.0093645 1.21546e-16
-0.0093555 2.17303e-15
-0.0093465 5.98682e-16
-0.0093375 7.37114e-16
-0.0093285 1.30228e-15
-0.0093195 4.93259e-17
-0.0093105 1.09786e-15
-0.0093015 4.02622e-18
-0.0092925 2.44093e-15
-0.0092835 1.54937e-15
-0.0092745 2.00227e-16
-0.0092655 1.12277e-15
-0.0092565 5.29451e-17
-0.0092475 2.1576e-15
-0.0092385 8.6563e-16
-0.0092295 1.4846e-16
-0.0092205 2.20885e-16
-0.0092115 3.21867e-16
-0.0092025 6.90637e-16
-0.0091935 7.47064e-17
-0.0091845 1.30222e-15
-0.0091755 3.55807e-16
-0.0091665 6.79578e-17
-0.0091575 4.36608e-18
-0.0091485 8.88116e-16
-0.0091395 5.0436e-16
-0.0091305 1.76946e-16
-0.0091215 2.12642e-16
-0.0091125 1.15955e-15
-0.0091035 3.86278e-15
-0.0090945 2.22827e-16
-0.0090855 3.07349e-15
-0.0090765 3.19506e-15
-0.0090675 9.08242e-17
-0.0090585 2.16484e-15
-0.0090495 2.4827e-17
-0.0090405 2.16869e-15
-0.0090315 7.14696e-16
-0.0090225 1.35828e-15
-0.0090135 2.795e-15
-0.0090045 3.35933e-17
-0.0089955 6.59781e-16
-0.0089865 2.7638e-17
-0.0089775 1.74124e-15
-0.0089685 3.18834e-16
-0.0089595 1.12252e-15
-0.0089505 1.00153e-15
-0.0089415 4.83673e-16
-0.0089325 1.78866e-15
-0.0089235 4.45634e-17
-0.0089145 2.80095e-15
-0.0089055 7.55813e-16
-0.0088965 7.26546e-16
-0.0088875 4.67403e-16
-0.0088785 1.50859e-15
-0.0088695 3.79103e-15
-0.0088605 9.52778e-17
-0.0088515 1.55116e-15
-0.0088425 2.06635e-16
-0.0088335 1.57046e-15
-0.0088245 1.09384e-15
-0.0088155 7.06072e-16
-0.0088065 2.28542e-15
-0.0087975 4.93102e-18
-0.0087885 8.68018e-16
-0.0087795 1.40594e-16
-0.0087705 3.87018e-15
-0.0087615 1.0315e-15
-0.0087525 2.1183e-15
-0.0087435 3.25101e-15
-0.0087345 4.06732e-16
-0.0087255 5.04491e-15
-0.0087165 1.97084e-16
-0.0087075 5.28561e-15
-0.0086985 4.08198e-15
-0.0086895 7.15482e-16
-0.0086805 4.60469e-15
-0.0086715 4.65596e-17
-0.0086625 3.22004e-15
-0.0086535 7.55816e-16
-0.0086445 1.8868e-15
-0.0086355 2.12441e-15
-0.0086265 2.14456e-16
-0.0086175 1.05123e-15
-0.0086085 6.55912e-16
-0.0085995 3.98087e-15
-0.0085905 7.75809e-17
-0.0085815 4.05331e-15
-0.0085725 2.0534e-15
-0.0085635 1.32507e-15
-0.0085545 2.9989e-15
-0.0085455 4.72791e-16
-0.0085365 6.21956e-15
-0.0085275 1.01774e-15
-0.0085185 1.86856e-15
-0.0085095 7.62835e-16
-0.0085005 3.05904e-15
-0.0084915 5.63359e-15
-0.0084825 1.39032e-17
-0.0084735 4.36003e-15
-0.0084645 5.93458e-16
-0.0084555 2.20952e-15
-0.0084465 8.82163e-16
-0.0084375 2.86435e-15
-0.0084285 5.7173e-15
-0.0084195 3.33268e-17
-0.0084105 1.78852e-15
-0.0084015 9.32892e-17
-0.0083925 6.00601e-15
-0.0083835 2.04532e-15
-0.0083745 2.55589e-15
-0.0083655 5.1834e-15
-0.0083565 5.34656e-17
-0.0083475 3.48505e-15
-0.0083385 6.14393e-18
-0.0083295 7.31714e-15
-0.0083205 3.67064e-15
-0.0083115 1.70394e-15
-0.0083025 5.59356e-15
-0.0082935 1.92607e-18
-0.0082845 3.23953e-15
-0.0082755 8.61249e-17
-0.0082665 4.23353e-15
-0.0082575 2.12717e-15
-0.0082485 1.32761e-15
-0.0082395 2.57095e-15
-0.0082305 7.64832e-16
-0.0082215 5.54022e-15
-0.0082125 1.25181e-16
-0.0082035 4.81518e-15
-0.0081945 2.1102e-15
-0.0081855 1.72864e-15
-0.0081765 2.68779e-15
-0.0081675 1.48147e-15
-0.0081585 9.34509e-15
-0.0081495 1.38803e-15
-0.0081405 2.30726e-15
-0.0081315 1.17165e-15
-0.0081225 1.9648e-15
-0.0081135 2.75307e-15
-0.0081045 9.06317e-16
-0.0080955 5.66544e-15
-0.0080865 7.77422e-17
-0.0080775 4.67661e-15
-0.0080685 1.09645e-15
-0.0080595 4.69986e-15
-0.0080505 7.94613e-15
-0.0080415 1.81092e-17
-0.0080325 2.83482e-15
-0.0080235 3.79512e-19
-0.0080145 5.21342e-15
-0.0080055 1.72885e-15
-0.0079965 2.42211e-15
-0.0079875 3.67757e-15
-0.0079785 6.29414e-16
-0.0079695 5.39201e-15
-0.0079605 1.92276e-17
-0.0079515 6.92338e-15
-0.0079425 3.82821e-15
-0.0079335 1.01252e-15
-0.0079245 3.27706e-15
-0.0079155 2.22703e-16
-0.0079065 4.21761e-15
-0.0078975 2.27825e-16
-0.0078885 2.76986e-15
-0.0078795 1.01828e-15
-0.0078705 1.48135e-15
-0.0078615 1.51582e-15
-0.0078525 1.42684e-15
-0.0078435 5.19803e-15
-0.0078345 4.35912e-17
-0.0078255 3.67492e-15
-0.0078165 7.80683e-16
-0.0078075 2.41395e-15
-0.0077985 1.80331e-15
-0.0077895 2.30344e-15
-0.0077805 8.18408e-15
-0.0077715 5.40055e-16
-0.0077625 2.47044e-15
-0.0077535 3.06558e-16
-0.0077445 4.7551e-15
-0.0077355 5.97739e-15
-0.0077265 1.7227e-17
-0.0077175 2.88146e-15
-0.0077085 4.65404e-17
-0.0076995 2.44586e-15
-0.0076905 3.97601e-16
-0.0076815 2.34492e-15
-0.0076725 2.04898e-15
-0.0076635 5.74752e-16
-0.0076545 1.99809e-15
-0.0076455 5.57197e-16
-0.0076365 6.12214e-15
-0.0076275 9.95137e-16
-0.0076185 2.44243e-15
-0.0076095 1.82296e-15
-0.0076005 1.64964e-15
-0.0075915 5.14397e-15
-0.0075825 5.79383e-19
-0.0075735 4.60809e-15
-0.0075645 1.30752e-15
-0.0075555 1.59675e-15
-0.0075465 1.69939e-15
-0.0075375 9.31122e-16
-0.0075285 3.57475e-15
-0.0075195 5.32225e-20
-0.0075105 2.99301e-15
-0.0075015 3.96556e-16
-0.0074925 2.36009e-15
-0.0074835 1.90335e-15
-0.0074745 6.11658e-16
-0.0074655 2.22947e-15
-0.0074565 1.08182e-16
-0.0074475 2.72627e-15
-0.0074385 1.45194e-17
-0.0074295 4.53516e-15
-0.0074205 2.82644e-15
-0.0074115 7.356e-16
-0.0074025 2.86766e-15
-0.0073935 1.69363e-16
-0.0073845 5.23662e-15
-0.0073755 1.37542e-15
-0.0073665 1.54708e-15
-0.0073575 2.52659e-15
-0.0073485 7.23567e-18
-0.0073395 5.09786e-16
-0.0073305 5.7819e-16
-0.0073215 3.22742e-15
-0.0073125 1.9872e-16
-0.0073035 1.97872e-15
-0.0072945 8.76831e-16
-0.0072855 1.28438e-15
-0.0072765 2.36219e-15
-0.0072675 2.83362e-16
-0.0072585 4.6955e-15
-0.0072495 1.36279e-15
-0.0072405 4.75971e-16
-0.0072315 2.49467e-16
-0.0072225 1.71463e-15
-0.0072135 3.13012e-15
-0.0072045 3.07439e-18
-0.0071955 1.60461e-15
-0.0071865 7.01457e-17
-0.0071775 1.87157e-15
-0.0071685 9.3647e-16
-0.0071595 9.92626e-16
-0.0071505 2.82645e-15
-0.0071415 4.84838e-17
-0.0071325 1.11248e-15
-0.0071235 6.29976e-17
-0.0071145 1.64103e-15
-0.0071055 1.37549e-15
-0.0070965 1.11634e-16
-0.0070875 8.37304e-16
-0.0070785 3.83376e-17
-0.0070695 1.3353e-15
-0.0070605 2.28608e-16
-0.0070515 5.71194e-16
-0.0070425 5.59235e-16
-0.0070335 5.78252e-17
-0.0070245 2.68219e-16
-0.0070155 5.95603e-17
-0.0070065 3.73823e-16
-0.0069975 1.31559e-17
-0.0069885 4.60809e-16
-0.0069795 2.51181e-18
-0.0069705 1.17728e-15
-0.0069615 5.47872e-16
-0.0069525 4.6941e-16
-0.0069435 1.46727e-15
-0.0069345 1.70732e-17
-0.0069255 8.192e-16
-0.0069165 1.19546e-16
-0.0069075 9.68183e-16
-0.0068985 1.43512e-15
-0.0068895 2.59531e-17
-0.0068805 2.03619e-16
-0.0068715 5.28572e-17
-0.0068625 1.04666e-15
-0.0068535 3.67344e-16
-0.0068445 2.39694e-16
-0.0068355 5.94493e-16
-0.0068265 8.34396e-19
-0.0068175 2.40335e-16
-0.0068085 6.3995e-19
-0.0067995 5.0844e-16
-0.0067905 6.99899e-16
-0.0067815 3.6924e-16
-0.0067725 5.97687e-16
-0.0067635 1.41191e-15
-0.0067545 1.04999e-15
-0.0067455 3.7088e-17
-0.0067365 1.2099e-16
-0.0067275 5.42591e-18
-0.0067185 7.31119e-16
-0.0067095 8.72588e-16
-0.0067005 2.10529e-17
-0.0066915 5.19721e-16
-0.0066825 9.7013e-16
-0.0066735 4.87517e-16
-0.0066645 6.8707e-17
-0.0066555 4.67091e-18
-0.0066465 3.68936e-17
-0.0066375 5.07335e-18
-0.0066285 2.49085e-17
-0.0066195 5.62987e-17
-0.0066105 1.71808e-17
-0.0066015 6.9192e-18
-0.0065925 2.75619e-17
-0.0065835 4.62079e-18
-0.0065745 1.43019e-16
-0.0065655 5.25656e-16
-0.0065565 1.91214e-16
-0.0065475 5.93637e-17
-0.0065385 2.58251e-16
-0.0065295 1.21689e-17
-0.0065205 8.2118e-17
-0.0065115 2.01575e-17
-0.0065025 2.55516e-17
-0.0064935 1.84235e-18
-0.0064845 3.94322e-17
-0.0064755 2.09344e-17
-0.0064665 7.42059e-16
-0.0064575 8.18349e-16
-0.0064485 1.36399e-18
-0.0064395 2.77916e-16
-0.0064305 4.75203e-17
-0.0064215 2.09407e-15
-0.0064125 2.35732e-15
-0.0064035 1.43718e-16
-0.0063945 2.10345e-16
-0.0063855 2.22157e-18
-0.0063765 4.24465e-16
-0.0063675 1.98394e-16
-0.0063585 3.81217e-17
-0.0063495 1.28898e-18
-0.0063405 5.44738e-16
-0.0063315 4.62991e-16
-0.0063225 2.63934e-16
-0.0063135 1.66454e-15
-0.0063045 3.15802e-16
-0.0062955 2.51809e-16
-0.0062865 4.20228e-17
-0.0062775 1.00377e-15
-0.0062685 1.377e-15
-0.0062595 2.17836e-18
-0.0062505 6.41191e-16
-0.0062415 6.78722e-19
-0.0062325 8.96502e-16
-0.0062235 5.40749e-17
-0.0062145 1.35014e-15
-0.0062055 9.05528e-16
-0.0061965 5.28893e-16
-0.0061875 1.46388e-15
-0.0061785 3.52058e-16
-0.0061695 4.84354e-15
-0.0061605 1.30147e-15
-0.0061515 1.33531e-15
-0.0061425 1.80143e-15
-0.0061335 5.19004e-16
-0.0061245 2.64167e-15
-0.0061155 1.07001e-16
-0.0061065 5.21625e-15
-0.0060975 1.10174e-15
-0.0060885 3.52127e-15
-0.0060795 5.20225e-15
-0.0060705 2.55861e-16
-0.0060615 6.44932e-15
-0.0060525 1.23964e-15
-0.0060435 1.73128e-15
-0.0060345 1.11005e-15
-0.0060255 1.38183e-15
-0.0060165 2.45614e-15
-0.0060075 4.04421e-16
-0.0059985 3.62718e-15
-0.0059895 2.84722e-18
-0.0059805 4.58842e-15
-0.0059715 1.36266e-15
-0.0059625 2.81375e-15
-0.0059535 4.68567e-15
-0.0059445 1.16731e-16
-0.0059355 3.56876e-15
-0.0059265 6.43082e-18
-0.0059175 4.93327e-15
-0.0059085 2.01999e-15
-0.0058995 1.3419e-15
-0.0058905 2.05048e-15
-0.0058815 8.41142e-16
-0.0058725 3.70815e-15
-0.0058635 5.99999e-17
-0.0058545 4.83829e-15
-0.0058455 4.15372e-16
-0.0058365 4.74692e-15
-0.0058275 3.14611e-15
-0.0058185 2.3044e-15
-0.0058095 8.14937e-15
-0.0058005 1.73278e-16
-0.0057915 2.75881e-15
-0.0057825 4.44846e-17
-0.0057735 1.03172e-14
-0.0057645 5.64608e-15
-0.0057555 2.08385e-15
-0.0057465 6.3811e-15
-0.0057375 7.77722e-16
-0.0057285 1.26391e-14
-0.0057195 1.41032e-15
-0.0057105 7.82032e-15
-0.0057015 5.32241e-15
-0.0056925 3.87457e-15
-0.0056835 1.15449e-14
-0.0056745 2.01531e-16
-0.0056655 1.5173e-14
-0.0056565 3.02635e-15
-0.0056475 7.35786e-15
-0.0056385 6.80552e-15
-0.0056295 3.91054e-15
-0.0056205 1.71758e-14
-0.0056115 5.09372e-16
-0.0056025 8.97268e-15
-0.0055935 2.14611e-15
-0.0055845 6.57645e-15
-0.0055755 6.46195e-15
-0.0055665 2.54307e-15
-0.0055575 1.1421e-14
-0.0055485 1.10563e-18
-0.0055395 9.86828e-15
-0.0055305 1.24839e-15
-0.0055215 8.33878e-15
-0.0055125 5.99606e-15
-0.0055035 3.43748e-15
-0.0054945 1.00761e-14
-0.0054855 7.62462e-16
-0.0054765 1.8333e-14
-0.0054675 3.45966e-15
-0.0054585 7.22282e-15
-0.0054495 6.24586e-15
-0.0054405 3.10967e-15
-0.0054315 9.15273e-15
-0.0054225 9.41088e-16
-0.0054135 1.57388e-14
-0.0054045 1.05206e-15
-0.0053955 1.20287e-14
-0.0053865 5.74819e-15
-0.0053775 8.49522e-15
-0.0053685 1.99317e-14
-0.0053595 3.11727e-17
-0.0053505 1.63284e-14
-0.0053415 2.04869e-15
-0.0053325 1.13563e-14
-0.0053235 8.09002e-15
-0.0053145 4.27781e-15
-0.0053055 1.25029e-14
-0.0052965 6.69514e-16
-0.0052875 1.70812e-14
-0.0052785 1.12547e-15
-0.0052695 1.41795e-14
-0.0052605 8.37957e-15
-0.0052515 5.16294e-15
-0.0052425 1.28861e-14
-0.0052335 1.29591e-15
-0.0052245 2.20667e-14
-0.0052155 2.86686e-15
-0.0052065 9.39324e-15
-0.0051975 4.64002e-15
-0.0051885 7.82488e-15
-0.0051795 1.38274e-14
-0.0051705 1.16239e-15
-0.0051615 1.65778e-14
-0.0051525 1.05537e-16
-0.0051435 2.07219e-14
-0.0051345 8.68027e-15
-0.0051255 8.32111e-15
-0.0051165 1.77687e-14
-0.0051075 4.17452e-16
-0.0050985 1.4648e-14
-0.0050895 9.91728e-17
-0.0050805 1.73528e-14
-0.0050715 5.14658e-15
-0.0050625 1.00238e-14
-0.0050535 1.14643e-14
-0.0050445 5.62208e-15
-0.0050355 2.7746e-14
-0.0050265 2.70694e-16
-0.0050175 2.33645e-14
-0.0050085 6.32671e-15
-0.0049995 1.72207e-14
-0.0049905 2.61306e-14
-0.0049815 1.15319e-15
-0.0049725 2.57358e-14
-0.0049635 1.29936e-15
-0.0049545 1.75371e-14
-0.0049455 6.05577e-15
-0.0049365 1.2079e-14
-0.0049275 1.63054e-14
-0.0049185 3.75185e-15
-0.0049095 2.70487e-14
-0.0049005 2.5234e-16
-0.0048915 2.57146e-14
-0.0048825 8.79586e-15
-0.0048735 1.27396e-14
-0.0048645 2.02321e-14
-0.0048555 2.11182e-15
-0.0048465 2.39829e-14
-0.0048375 2.18974e-16
-0.0048285 2.34998e-14
-0.0048195 7.44212e-15
-0.0048105 1.14548e-14
-0.0048015 1.34679e-14
-0.0047925 6.61356e-15
-0.0047835 3.18034e-14
-0.0047745 3.14992e-16
-0.0047655 2.45678e-14
-0.0047565 5.54811e-15
-0.0047475 1.96379e-14
-0.0047385 2.4526e-14
-0.0047295 2.58527e-15
-0.0047205 2.66009e-14
-0.0047115 1.07443e-16
-0.0047025 2.7682e-14
-0.0046935 8.56588e-15
-0.0046845 1.25899e-14
-0.0046755 1.49465e-14
-0.0046665 6.89489e-15
-0.0046575 3.34952e-14
-0.0046485 1.76771e-16
-0.0046395 3.09759e-14
-0.0046305 1.08505e-14
-0.0046215 1.17839e-14
-0.0046125 1.68958e-14
-0.0046035 4.90289e-15
-0.0045945 3.16327e-14
-0.0045855 7.04682e-16
-0.0045765 2.16253e-14
-0.0045675 5.58088e-15
-0.0045585 1.5945e-14
-0.0045495 1.97879e-14
-0.0045405 2.51664e-15
-0.0045315 1.99706e-14
-0.0045225 2.35068e-16
-0.0045135 3.12867e-14
-0.0045045 7.79624e-15
-0.0044955 1.39522e-14
-0.0044865 1.62059e-14
-0.0044775 4.75483e-15
-0.0044685 2.58877e-14
-0.0044595 1.80932e-17
-0.0044505 2.4477e-14
-0.0044415 5.09636e-15
-0.0044325 1.55498e-14
-0.0044235 1.54113e-14
-0.0044145 5.32696e-15
-0.0044055 2.56172e-14
-0.0043965 1.13087e-17
-0.0043875 2.24841e-14
-0.0043785 3.51952e-15
-0.0043695 1.765e-14
-0.0043605 1.53514e-14
-0.0043515 5.75431e-15
-0.0043425 2.50257e-14
-0.0043335 9.12519e-18
-0.0043245 2.4114e-14
-0.0043155 3.61437e-15
-0.0043065 1.87139e-14
-0.0042975 1.76181e-14
-0.0042885 3.96519e-15
-0.0042795 2.14021e-14
-0.0042705 7.36261e-17
-0.0042615 2.48186e-14
-0.0042525 4.82684e-15
-0.0042435 1.35034e-14
-0.0042345 1.2343e-14
-0.0042255 5.30707e-15
-0.0042165 2.15084e-14
-0.0042075 3.94853e-18
-0.0041985 1.83971e-14
-0.0041895 1.73221e-15
-0.0041805 1.80277e-14
-0.0041715 1.32951e-14
-0.0041625 5.54279e-15
-0.0041535 2.15565e-14
-0.0041445 2.49039e-17
-0.0041355 2.09543e-14
-0.0041265 3.76077e-15
-0.0041175 1.19182e-14
-0.0041085 1.04194e-14
-0.0040995 4.24015e-15
-0.0040905 1.63792e-14
-0.0040815 8.56523e-17
-0.0040725 1.70036e-14
-0.0040635 2.67863e-15
-0.0040545 8.62156e-15
-0.0040455 4.88663e-15
-0.0040365 6.94882e-15
-0.0040275 1.43845e-14
-0.0040185 5.83558e-16
-0.0040095 1.58486e-14
-0.0040005 5.87388e-16
-0.0039915 1.57879e-14
-0.0039825 8.47343e-15
-0.0039735 5.40619e-15
-0.0039645 1.36611e-14
-0.0039555 6.23852e-16
-0.0039465 1.66721e-14
-0.0039375 1.19511e-15
-0.0039285 1.22344e-14
-0.0039195 6.91964e-15
-0.0039105 4.83034e-15
-0.0039015 1.16476e-14
-0.0038925 6.7723e-16
-0.0038835 1.52158e-14
-0.0038745 1.37602e-15
-0.0038655 8.35398e-15
-0.0038565 3.37268e-15
-0.0038475 7.04978e-15
-0.0038385 1.18494e-14
-0.0038295 8.26851e-16
-0.0038205 1.48776e-14
-0.0038115 8.71845e-16
-0.0038025 1.21937e-14
-0.0037935 9.06641e-15
-0.0037845 1.38158e-15
-0.0037755 6.18755e-15
-0.0037665 6.38788e-16
-0.0037575 1.04628e-14
-0.0037485 9.13106e-16
-0.0037395 5.8358e-15
-0.0037305 2.91742e-15
-0.0037215 2.78727e-15
-0.0037125 4.48675e-15
-0.0037035 1.54761e-15
-0.0036945 1.02642e-14
-0.0036855 4.06851e-16
-0.0036765 6.72613e-15
-0.0036675 2.49756e-15
-0.0036585 4.67835e-15
-0.0036495 9.71724e-15
-0.0036405 1.26132e-17
-0.0036315 4.77952e-15
-0.0036225 2.96596e-16
-0.0036135 4.75315e-15
-0.0036045 3.17519e-15
-0.0035955 8.25789e-16
-0.0035865 2.86427e-15
-0.0035775 1.56442e-16
-0.0035685 3.61313e-15
-0.0035595 3.36181e-16
-0.0035505 1.51553e-15
-0.0035415 2.70757e-16
-0.0035325 2.73508e-15
-0.0035235 3.64557e-15
-0.0035145 5.3742e-17
-0.0035055 3.02712e-15
-0.0034965 4.82674e-16
-0.0034875 1.23049e-15
-0.0034785 1.36083e-15
-0.0034695 2.22552e-17
-0.0034605 4.38276e-16
-0.0034515 2.30035e-17
-0.0034425 5.73275e-16
-0.0034335 6.19128e-17
-0.0034245 1.94409e-16
-0.0034155 1.28999e-16
-0.0034065 7.65345e-20
-0.0033975 4.2627e-17
-0.0033885 3.59417e-16
-0.0033795 1.30448e-16
-0.0033705 9.40898e-17
-0.0033615 2.40986e-16
-0.0033525 3.40203e-18
-0.0033435 5.56475e-17
-0.0033345 2.70628e-18
-0.0033255 2.10198e-17
-0.0033165 1.2284e-17
-0.0033075 4.90637e-17
-0.0032985 2.65844e-16
-0.0032895 1.14547e-16
-0.0032805 1.97964e-16
-0.0032715 6.34632e-16
-0.0032625 1.95218e-19
-0.0032535 1.01239e-15
-0.0032445 6.11054e-16
-0.0032355 5.04919e-17
-0.0032265 8.34663e-17
-0.0032175 6.74724e-16
-0.0032085 1.74612e-15
-0.0031995 7.23809e-17
-0.0031905 5.74881e-16
-0.0031815 2.92875e-17
-0.0031725 7.44761e-16
-0.0031635 4.42465e-17
-0.0031545 2.09707e-15
-0.0031455 1.58772e-15
-0.0031365 1.26505e-15
-0.0031275 5.50377e-15
-0.0031185 8.31149e-17
-0.0031095 4.86299e-15
-0.0031005 1.56288e-15
-0.0030915 3.88795e-15
-0.0030825 6.73789e-15
-0.0030735 2.97904e-16
-0.0030645 8.14166e-15
-0.0030555 7.62165e-16
-0.0030465 5.10712e-15
-0.0030375 2.48309e-15
-0.0030285 3.55139e-15
-0.0030195 6.51672e-15
-0.0030105 6.66852e-16
-0.0030015 8.21461e-15
-0.0029925 8.61039e-19
-0.0029835 1.38792e-14
-0.0029745 6.19083e-15
-0.0029655 3.63441e-15
-0.0029565 7.09087e-15
-0.0029475 1.88298e-15
-0.0029385 1.33897e-14
-0.0029295 6.05808e-17
-0.0029205 1.32102e-14
-0.0029115 2.36964e-15
-0.0029025 1.41601e-14
-0.0028935 1.734e-14
-0.0028845 1.14379e-15
-0.0028755 1.42644e-14
-0.0028665 1.47432e-16
-0.0028575 2.2637e-14
-0.0028485 3.757e-15
-0.0028395 1.73837e-14
-0.0028305 1.51051e-14
-0.0028215 8.83217e-15
-0.0028125 3.73879e-14
-0.0028035 2.64697e-16
-0.0027945 2.86339e-14
-0.0027855 5.22582e-15
-0.0027765 2.61853e-14
-0.0027675 2.68368e-14
-0.0027585 7.21977e-15
-0.0027495 4.42583e-14
-0.0027405 4.3804e-16
-0.0027315 3.53109e-14
-0.0027225 7.92489e-15
-0.0027135 2.58992e-14
-0.0027045 2.58455e-14
-0.0026955 1.01689e-14
-0.0026865 4.61314e-14
-0.0026775 4.88991e-17
-0.0026685 4.85992e-14
-0.0026595 6.35366e-15
-0.0026505 4.26192e-14
-0.0026415 3.3032e-14
-0.0026325 1.94692e-14
-0.0026235 7.34312e-14
-0.0026145 3.5777e-18
-0.0026055 6.81882e-14
-0.0025965 1.27554e-14
-0.0025875 4.69896e-14
-0.0025785 4.53103e-14
-0.0025695 1.43572e-14
-0.0025605 6.53355e-14
-0.0025515 7.95803e-16
-0.0025425 8.33716e-14
-0.0025335 1.09869e-14
-0.0025245 6.17302e-14
-0.0025155 4.53709e-14
-0.0025065 2.96386e-14
-0.0024975 9.52345e-14
-0.0024885 1.08827e-15
-0.0024795 1.12516e-13
-0.0024705 1.56725e-14
-0.0024615 7.9312e-14
-0.0024525 6.5212e-14
-0.0024435 2.78291e-14
-0.0024345 1.07567e-13
-0.0024255 6.78511e-16
-0.0024165 1.15503e-13
-0.0024075 1.26482e-14
-0.0023985 9.41712e-14
-0.0023895 6.39995e-14
-0.0023805 4.20028e-14
-0.0023715 1.22845e-13
-0.0023625 3.74209e-15
-0.0023535 1.58362e-13
-0.0023445 1.52035e-14
-0.0023355 1.24157e-13
-0.0023265 8.48375e-14
-0.0023175 4.81652e-14
-0.0023085 1.49695e-13
-0.0022995 3.00034e-15
-0.0022905 1.72883e-13
-0.0022815 1.44295e-14
-0.0022725 1.45797e-13
-0.0022635 9.10271e-14
-0.0022545 6.1783e-14
-0.0022455 1.70087e-13
-0.0022365 5.66338e-15
-0.0022275 2.07308e-13
-0.0022185 1.44227e-14
-0.0022095 1.77901e-13
-0.0022005 1.02897e-13
-0.0021915 7.91262e-14
-0.0021825 2.04092e-13
-0.0021735 6.62596e-15
-0.0021645 2.39387e-13
-0.0021555 1.64876e-14
-0.0021465 1.93624e-13
-0.0021375 9.8321e-14
-0.0021285 1.08049e-13
-0.0021195 2.31514e-13
-0.0021105 1.38374e-14
-0.0021015 3.01432e-13
-0.0020925 1.71694e-14
-0.0020835 2.51976e-13
-0.0020745 1.34371e-13
-0.0020655 1.10491e-13
-0.0020565 2.52073e-13
-0.0020475 1.83642e-14
-0.0020385 3.48092e-13
-0.0020295 1.89218e-14
-0.0020205 2.8391e-13
-0.0020115 1.40035e-13
-0.0020025 1.43834e-13
-0.0019935 3.0971e-13
-0.0019845 1.61793e-14
-0.0019755 3.70651e-13
-0.0019665 1.61732e-14
-0.0019575 3.30253e-13
-0.0019485 1.55462e-13
-0.0019395 1.59973e-13
-0.0019305 3.22206e-13
-0.0019215 2.76745e-14
-0.0019125 4.36118e-13
-0.0019035 1.68064e-14
-0.0018945 3.71441e-13
-0.0018855 1.56338e-13
-0.0018765 2.05776e-13
-0.0018675 3.74377e-13
-0.0018585 3.37579e-14
-0.0018495 4.84928e-13
-0.0018405 1.15038e-14
-0.0018315 4.68886e-13
-0.0018225 1.93766e-13
-0.0018135 2.31421e-13
-0.0018045 4.29505e-13
-0.0017955 3.66281e-14
-0.0017865 5.47305e-13
-0.0017775 1.5905e-14
-0.0017685 4.85025e-13
-0.0017595 1.87102e-13
-0.0017505 2.71271e-13
-0.0017415 4.52167e-13
-0.0017325 5.40345e-14
-0.0017235 6.22065e-13
-0.0017145 1.31188e-14
-0.0017055 5.6376e-13
-0.0016965 2.00799e-13
-0.0016875 3.24512e-13
-0.0016785 5.1491e-13
-0.0016695 6.28751e-14
-0.0016605 6.98893e-13
-0.0016515 1.43757e-14
-0.0016425 6.21562e-13
-0.0016335 2.20369e-13
-0.0016245 3.38e-13
-0.0016155 5.06417e-13
-0.0016065 8.93653e-14
-0.0015975 7.543e-13
-0.0015885 6.45656e-15
-0.0015795 7.30396e-13
-0.0015705 2.15328e-13
-0.0015615 4.50396e-13
-0.0015525 6.23719e-13
-0.0015435 9.29821e-14
-0.0015345 8.33457e-13
-0.0015255 5.95232e-15
-0.0015165 8.21344e-13
-0.0015075 2.4498e-13
-0.0014985 4.62747e-13
-0.0014895 6.08987e-13
-0.0014805 1.31897e-13
-0.0014715 9.20763e-13
-0.0014625 2.7864e-15
-0.0014535 9.11781e-13
-0.0014445 2.23314e-13
-0.0014355 5.96656e-13
-0.0014265 6.98956e-13
-0.0014175 1.62632e-13
-0.0014085 1.0389e-12
-0.0013995 1.03034e-15
-0.0013905 1.06817e-12
-0.0013815 2.53046e-13
-0.0013725 6.67495e-13
-0.0013635 7.4813e-13
-0.0013545 2.07502e-13
-0.0013455 1.18961e-12
-0.0013365 8.49866e-16
-0.0013275 1.18955e-12
-0.0013185 2.60537e-13
-0.0013095 7.88331e-13
-0.0013005 8.5296e-13
-0.0012915 2.3142e-13
-0.0012825 1.31495e-12
-0.0012735 4.46587e-16
-0.0012645 1.33826e-12
-0.0012555 2.98462e-13
-0.0012465 8.34284e-13
-0.0012375 8.93267e-13
-0.0012285 2.59593e-13
-0.0012195 1.38181e-12
-0.0012105 3.97699e-17
-0.0012015 1.43386e-12
-0.0011925 2.67056e-13
-0.0011835 9.9118e-13
-0.0011745 9.39089e-13
-0.0011655 3.42344e-13
-0.0011565 1.5617e-12
-0.0011475 1.31369e-15
-0.0011385 1.65235e-12
-0.0011295 2.87243e-13
-0.0011205 1.13554e-12
-0.0011115 1.03496e-12
-0.0011025 3.94596e-13
-0.0010935 1.71034e-12
-0.0010845 3.94073e-15
-0.0010755 1.85801e-12
-0.0010665 3.03537e-13
-0.0010575 1.27372e-12
-0.0010485 1.10512e-12
-0.0010395 4.66981e-13
-0.0010305 1.873e-12
-0.0010215 8.60399e-15
-0.0010125 2.06627e-12
-0.0010035 2.99191e-13
-0.0009945 1.48635e-12
-0.0009855 1.21771e-12
-0.0009765 5.47711e-13
-0.0009675 2.08412e-12
-0.0009585 1.25669e-14
-0.0009495 2.29671e-12
-0.0009405 3.1483e-13
-0.0009315 1.64454e-12
-0.0009225 1.2685e-12
-0.0009135 6.69273e-13
-0.0009045 2.31717e-12
-0.0008955 2.06291e-14
-0.0008865 2.57157e-12
-0.0008775 3.17325e-13
-0.0008685 1.91094e-12
-0.0008595 1.42383e-12
-0.0008505 7.50385e-13
-0.0008415 2.5427e-12
-0.0008325 2.70145e-14
-0.0008235 2.8234e-12
-0.0008145 3.26923e-13
-0.0008055 2.09889e-12
-0.0007965 1.46644e-12
-0.0007875 8.97044e-13
-0.0007785 2.74566e-12
-0.0007695 5.11311e-14
-0.0007605 3.17939e-12
-0.0007515 3.09273e-13
-0.0007425 2.47843e-12
-0.0007335 1.61811e-12
-0.0007245 1.06483e-12
-0.0007155 3.06686e-12
-0.0007065 7.38725e-14
-0.0006975 3.63291e-12
-0.0006885 3.38259e-13
-0.0006795 2.76466e-12
-0.0006705 1.72137e-12
-0.0006615 1.25428e-12
-0.0006525 3.35798e-12
-0.0006435 1.11368e-13
-0.0006345 4.08656e-12
-0.0006255 3.13865e-13
-0.0006165 3.29133e-12
-0.0006075 1.91539e-12
-0.0005985 1.50622e-12
-0.0005895 3.81242e-12
-0.0005805 1.47933e-13
-0.0005715 4.68363e-12
-0.0005625 3.30833e-13
-0.0005535 3.78287e-12
-0.0005445 2.09152e-12
-0.0005355 1.80957e-12
-0.0005265 4.31972e-12
-0.0005175 1.96077e-13
-0.0005085 5.34649e-12
-0.0004995 3.24907e-13
-0.0004905 4.47116e-12
-0.0004815 2.33883e-12
-0.0004725 2.17815e-12
-0.0004635 4.91855e-12
-0.0004545 2.75255e-13
-0.0004455 6.29132e-12
-0.0004365 3.4701e-13
-0.0004275 5.27995e-12
-0.0004185 2.63996e-12
-0.0004095 2.65368e-12
-0.0004005 5.72935e-12
-0.0003915 3.52672e-13
-0.0003825 7.32983e-12
-0.0003735 3.47232e-13
-0.0003645 6.33768e-12
-0.0003555 2.96821e-12
-0.0003465 3.33125e-12
-0.0003375 6.69917e-12
-0.0003285 5.30867e-13
-0.0003195 9.01621e-12
-0.0003105 3.62221e-13
-0.0003015 7.97768e-12
-0.0002925 3.57075e-12
-0.0002835 4.26437e-12
-0.0002745 8.27497e-12
-0.0002655 7.11205e-13
-0.0002565 1.12259e-11
-0.0002475 3.88418e-13
-0.0002385 1.02364e-11
-0.0002295 4.33465e-12
-0.0002205 5.74848e-12
-0.0002115 1.05453e-11
-0.0002025 1.10168e-12
-0.0001935 1.50546e-11
-0.0001845 4.28627e-13
-0.0001755 1.43123e-11
-0.0001665 5.77948e-12
-0.0001575 8.46667e-12
-0.0001485 1.50441e-11
-0.0001395 1.72973e-12
-0.0001305 2.23493e-11
-0.0001215 5.54336e-13
-0.0001125 2.26083e-11
-0.0001035 8.98626e-12
-9.45e-05 1.44084e-11
-8.55e-05 2.54798e-11
-7.65e-05 3.50763e-12
-6.75e-05 4.31248e-11
-5.85e-05 9.62404e-13
-4.95e-05 5.17253e-11
-4.05e-05 2.22595e-11
-3.15e-05 4.3317e-11
-2.25e-05 9.56167e-11
-1.35e-05 1.52324e-11
-4.5e-06 4.28354e-10
4.5e-06 4.28354e-10
1.35e-05 1.52324e-11
2.25e-05 9.56167e-11
3.15e-05 4.3317e-11
4.05e-05 2.22595e-11
4.95e-05 5.17253e-11
5.85e-05 9.62404e-13
6.75e-05 4.31248e-11
7.65e-05 3.50763e-12
8.55e-05 2.54798e-11
9.45e-05 1.44084e-11
0.0001035 8.98626e-12
0.0001125 2.26083e-11
0.0001215 5.54336e-13
0.0001305 2.23493e-11
0.0001395 1.72973e-12
0.0001485 1.50441e-11
0.0001575 8.46667e-12
0.0001665 5.77948e-12
0.0001755 1.43123e-11
0.0001845 4.28627e-13
0.0001935 1.50546e-11
0.0002025 1.10168e-12
0.0002115 1.05453e-11
0.0002205 5.74848e-12
0.0002295 4.33465e-12
0.0002385 1.02364e-11
0.0002475 3.88418e-13
0.0002565 1.12259e-11
0.0002655 7.11205e-13
0.0002745 8.27497e-12
0.0002835 4.26437e-12
0.0002925 3.57075e-12
0.0003015 7.97768e-12
0.0003105 3.62221e-13
0.0003195 9.01621e-12
0.0003285 5.30867e-13
0.0003375 6.69917e-12
0.0003465 3.33125e-12
0.0003555 2.96821e-12
0.0003645 6.33768e-12
0.0003735 3.47232e-13
0.0003825 7.32983e-12
0.0003915 3.52672e-13
0.0004005 5.72935e-12
0.0004095 2.65368e-12
0.0004185 2.63996e-12
0.0004275 5.27995e-12
0.0004365 3.4701e-13
0.0004455 6.29132e-12
0.0004545 2.75255e-13
0.0004635 4.91855e-12
0.0004725 2.17815e-12
0.0004815 2.33883e-12
0.0004905 4.47116e-12
0.0004995 3.24907e-13
0.0005085 5.34649e-12
0.0005175 1.96077e-13
0.0005265 4.31972e-12
0.0005355 1.80957e-12
0.0005445 2.09152e-12
0.0005535 3.78287e-12
0.0005625 3.30833e-13
0.0005715 4.68363e-12
0.0005805 1.47933e-13
0.0005895 3.81242e-12
0.0005985 1.50622e-12
0.0006075 1.91539e-12
0.0006165 3.29133e-12
0.0006255 3.13865e-13
0.0006345 4.08656e-12
0.0006435 1.11368e-13
0.0006525 3.35798e-12
0.0006615 1.25428e-12
0.0006705 1.72137e-12
0.0006795 2.76466e-12
0.0006885 3.38259e-13
0.0006975 3.63291e-12
0.0007065 7.38725e-14
0.0007155 3.06686e-12
0.0007245 1.06483e-12
0.0007335 1.61811e-12
0.0007425 2.47843e-12
0.0007515 3.09273e-13
0.0007605 3.17939e-12
0.0007695 5.11311e-14
0.0007785 2.74566e-12
0.0007875 8.97044e-13
0.0007965 1.46644e-12
0.0008055 2.09889e-12
0.0008145 3.26923e-13
0.0008235 2.8234e-12
0.0008325 2.70145e-14
0.0008415 2.5427e-12
0.0008505 7.50385e-13
0.0008595 1.42383e-12
0.0008685 1.91094e-12
0.0008775 3.17325e-13
0.0008865 2.57157e-12
0.0008955 2.06291e-14
0.0009045 2.31717e-12
0.0009135 6.69273e-13
0.0009225 1.2685e-12
0.0009315 1.64454e-12
0.0009405 3.1483e-13
0.0009495 2.29671e-12
0.0009585 1.25669e-14
0.0009675 2.08412e-12
0.0009765 5.47711e-13
0.0009855 1.21771e-12
0.0009945 1.48635e-12
0.0010035 2.99191e-13
0.0010125 2.06627e-12
0.0010215 8.60399e-15
0.0010305 1.873e-12
0.0010395 4.66981e-13
0.0010485 1.10512e-12
0.0010575 1.27372e-12
0.0010665 3.03537e-13
0.0010755 1.85801e-12
0.0010845 3.94073e-15
0.0010935 1.71034e-12
0.0011025 3.94596e-13
0.0011115 1.03496e-12
0.0011205 1.13554e-12
0.0011295 2.87243e-13
0.0011385 1.65235e-12
0.0011475 1.31369e-15
0.0011565 1.5617e-12
0.0011655 3.42344e-13
0.0011745 9.39089e-13
0.0011835 9.9118e-13
0.0011925 2.67056e-13
0.0012015 1.43386e-12
0.0012105 3.97699e-17
0.0012195 1.38181e-12
0.0012285 2.59593e-13
0.0012375 8.93267e-13
0.0012465 8.34284e-13
0.0012555 2.98462e-13
0.0012645 1.33826e-12
0.0012735 4.46587e-16
0.0012825 1.31495e-12
0.0012915 2.3142e-13
0.0013005 8.5296e-13
0.0013095 7.88331e-13
0.0013185 2.60537e-13
0.0013275 1.18955e-12
0.0013365 8.49866e-16
0.0013455 1.18961e-12
0.0013545 2.07502e-13
0.0013635 7.4813e-13
0.0013725 6.67495e-13
0.0013815 2.53046e-13
0.0013905 1.06817e-12
0.0013995 1.03034e-15
0.0014085 1.0389e-12
0.0014175 1.62632e-13
0.0014265 6.98956e-13
0.0014355 5.96656e-13
0.0014445 2.23314e-13
0.0014535 9.11781e-13
0.0014625 2.7864e-15
0.0014715 9.20763e-13
0.0014805 1.31897e-13
0.0014895 6.08987e-13
0.0014985 4.62747e-13
0.0015075 2.4498e-13
0.0015165 8.21344e-13
0.0015255 5.95232e-15
0.0015345 8.33457e-13
0.0015435 9.29821e-14
0.0015525 6.23719e-13
0.0015615 4.50396e-13
0.0015705 2.15328e-13
0.0015795 7.30396e-13
0.0015885 6.45656e-15
0.0015975 7.543e-13
0.0016065 8.93653e-14
0.0016155 5.06417e-13
0.0016245 3.38e-13
0.0016335 2.20369e-13
0.0016425 6.21562e-13
0.0016515 1.43757e-14
0.0016605 6.98893e-13
0.0016695 6.28751e-14
0.0016785 5.1491e-13
0.0016875 3.24512e-13
0.0016965 2.00799e-13
0.0017055 5.6376e-13
0.0017145 1.31188e-14
0.0017235 6.22065e-13
0.0017325 5.40345e-14
0.0017415 4.52167e-13
0.0017505 2.71271e-13
0.0017595 1.87102e-13
0.0017685 4.85025e-13
0.0017775 1.5905e-14
0.0017865 5.47305e-13
0.0017955 3.66281e-14
0.0018045 4.29505e-13
0.0018135 2.31421e-13
0.0018225 1.93766e-13
0.0018315 4.68886e-13
0.0018405 1.15038e-14
0.0018495 4.84928e-13
0.0018585 3.37579e-14
0.0018675 3.74377e-13
0.0018765 2.05776e-13
0.0018855 1.56338e-13
0.0018945 3.71441e-13
0.0019035 1.68064e-14
0.0019125 4.36118e-13
0.0019215 2.76745e-14
0.0019305 3.22206e-13
0.0019395 1.59973e-13
0.0019485 1.55462e-13
0.0019575 3.30253e-13
0.0019665 1.61732e-14
0.0019755 3.70651e-13
0.0019845 1.61793e-14
0.0019935 3.0971e-13
0.0020025 1.43834e-13
0.0020115 1.40035e-13
0.0020205 2.8391e-13
0.0020295 1.89218e-14
0.0020385 3.48092e-13
0.0020475 1.83642e-14
0.0020565 2.52073e-13
0.0020655 1.10491e-13
0.0020745 1.34371e-13
0.0020835 2.51976e-13
0.0020925 1.71694e-14
0.0021015 3.01432e-13
0.0021105 1.38374e-14
0.0021195 2.31514e-13
0.0021285 1.08049e-13
0.0021375 9.8321e-14
0.0021465 1.93624e-13
0.0021555 1.64876e-14
0.0021645 2.39387e-13
0.0021735 6.62596e-15
0.0021825 2.04092e-13
0.0021915 7.91262e-14
0.0022005 1.02897e-13
0.0022095 1.77901e-13
0.0022185 1.44227e-14
0.0022275 2.07308e-13
0.0022365 5.66338e-15
0.0022455 1.70087e-13
0.0022545 6.1783e-14
0.0022635 9.10271e-14
0.0022725 1.45797e-13
0.0022815 1.44295e-14
0.0022905 1.72883e-13
0.0022995 3.00034e-15
0.0023085 1.49695e-13
0.0023175 4.81652e-14
0.0023265 8.48375e-14
0.0023355 1.24157e-13
0.0023445 1.52035e-14
0.0023535 1.58362e-13
0.0023625 3.74209e-15
0.0023715 1.22845e-13
0.0023805 4.20028e-14
0.0023895 6.39995e-14
0.0023985 9.41712e-14
0.0024075 1.26482e-14
0.0024165 1.15503e-13
0.0024255 6.78511e-16
0.0024345 1.07567e-13
0.0024435 2.78291e-14
0.0024525 6.5212e-14
0.0024615 7.9312e-14
0.0024705 1.56725e-14
0.0024795 1.12516e-13
0.0024885 1.08827e-15
0.0024975 9.52345e-14
0.0025065 2.96386e-14
0.0025155 4.53709e-14
0.0025245 6.17302e-14
0.0025335 1.09869e-14
0.0025425 8.33716e-14
0.0025515 7.95803e-16
0.0025605 6.53355e-14
0.0025695 1.43572e-14
0.0025785 4.53103e-14
0.0025875 4.69896e-14
0.0025965 1.27554e-14
0.0026055 6.81882e-14
0.0026145 3.5777e-18
0.0026235 7.34312e-14
0.0026325 1.94692e-14
0.0026415 3.3032e-14
0.0026505 4.26192e-14
0.0026595 6.35366e-15
0.0026685 4.85992e-14
0.0026775 4.88991e-17
0.0026865 4.61314e-14
0.0026955 1.01689e-14
0.0027045 2.58455e-14
0.0027135 2.58992e-14
0.0027225 7.92489e-15
0.0027315 3.53109e-14
0.0027405 4.3804e-16
0.0027495 4.42583e-14
0.0027585 7.21977e-15
0.0027675 2.68368e-14
0.0027765 2.61853e-14
0.0027855 5.22582e-15
0.0027945 2.86339e-14
0.0028035 2.64697e-16
0.0028125 3.73879e-14
0.0028215 8.83217e-15
0.0028305 1.51051e-14
0.0028395 1.73837e-14
0.0028485 3.757e-15
0.0028575 2.2637e-14
0.0028665 1.47432e-16
0.0028755 1.42644e-14
0.0028845 1.14379e-15
0.0028935 1.734e-14
0.0029025 1.41601e-14
0.0029115 2.36964e-15
0.0029205 1.32102e-14
0.0029295 6.05808e-17
0.0029385 1.33897e-14
0.0029475 1.88298e-15
0.0029565 7.09087e-15
0.0029655 3.63441e-15
0.0029745 6.19083e-15
0.0029835 1.38792e-14
0.0029925 8.61039e-19
0.0030015 8.21461e-15
0.0030105 6.66852e-16
0.0030195 6.51672e-15
0.0030285 3.55139e-15
0.0030375 2.48309e-15
0.0030465 5.10712e-15
0.0030555 7.62165e-16
0.0030645 8.14166e-15
0.0030735 2.97904e-16
0.0030825 6.73789e-15
0.0030915 3.88795e-15
0.0031005 1.56288e-15
0.0031095 4.86299e-15
0.0031185 8.31149e-17
0.0031275 5.50377e-15
0.0031365 1.26505e-15
0.0031455 1.58772e-15
0.0031545 2.09707e-15
0.0031635 4.42465e-17
0.0031725 7.44761e-16
0.0031815 2.92875e-17
0.0031905 5.74881e-16
0.0031995 7.23809e-17
0.0032085 1.74612e-15
0.0032175 6.74724e-16
0.0032265 8.34663e-17
0.0032355 5.04919e-17
0.0032445 6.11054e-16
0.0032535 1.01239e-15
0.0032625 1.95218e-19
0.0032715 6.34632e-16
0.0032805 1.97964e-16
0.0032895 1.14547e-16
0.0032985 2.65844e-16
0.0033075 4.90637e-17
0.0033165 1.2284e-17
0.0033255 2.10198e-17
0.0033345 2.70628e-18
0.0033435 5.56475e-17
0.0033525 3.40203e-18
0.0033615 2.40986e-16
0.0033705 9.40898e-17
0.0033795 1.30448e-16
0.0033885 3.59417e-16
0.0033975 4.2627e-17
0.0034065 7.65345e-20
0.0034155 1.28999e-16
0.0034245 1.94409e-16
0.0034335 6.19128e-17
0.0034425 5.73275e-16
0.0034515 2.30035e-17
0.0034605 4.38276e-16
0.0034695 2.22552e-17
0.0034785 1.36083e-15
0.0034875 1.23049e-15
0.0034965 4.82674e-16
0.0035055 3.02712e-15
0.0035145 5.3742e-17
0.0035235 3.64557e-15
0.0035325 2.73508e-15
0.0035415 2.70757e-16
0.0035505 1.51553e-15
0.0035595 3.36181e-16
0.0035685 3.61313e-15
0.0035775 1.56442e-16
0.0035865 2.86427e-15
0.0035955 8.25789e-16
0.0036045 3.17519e-15
0.0036135 4.75315e-15
0.0036225 2.96596e-16
0.0036315 4.77952e-15
0.0036405 1.26132e-17
0.0036495 9.71724e-15
0.0036585 4.67835e-15
0.0036675 2.49756e-15
0.0036765 6.72613e-15
0.0036855 4.06851e-16
0.0036945 1.02642e-14
0.0037035 1.54761e-15
0.0037125 4.48675e-15
0.0037215 2.78727e-15
0.0037305 2.91742e-15
0.0037395 5.8358e-15
0.0037485 9.13106e-16
0.0037575 1.04628e-14
0.0037665 6.38788e-16
0.0037755 6.18755e-15
0.0037845 1.38158e-15
0.0037935 9.06641e-15
0.0038025 1.21937e-14
0.0038115 8.71845e-16
0.0038205 1.48776e-14
0.0038295 8.26851e-16
0.0038385 1.18494e-14
0.0038475 7.04978e-15
0.0038565 3.37268e-15
0.0038655 8.35398e-15
0.0038745 1.37602e-15
0.0038835 1.52158e-14
0.0038925 6.7723e-16
0.0039015 1.16476e-14
0.0039105 4.83034e-15
0.0039195 6.91964e-15
0.0039285 1.22344e-14
0.0039375 1.19511e-15
0.0039465 1.66721e-14
0.0039555 6.23852e-16
0.0039645 1.36611e-14
0.0039735 5.40619e-15
0.0039825 8.47343e-15
0.0039915 1.57879e-14
0.0040005 5.87388e-16
0.0040095 1.58486e-14
0.0040185 5.83558e-16
0.0040275 1.43845e-14
0.0040365 6.94882e-15
0.0040455 4.88663e-15
0.0040545 8.62156e-15
0.0040635 2.67863e-15
0.0040725 1.70036e-14
0.0040815 8.56523e-17
0.0040905 1.63792e-14
0.0040995 4.24015e-15
0.0041085 1.04194e-14
0.0041175 1.19182e-14
0.0041265 3.76077e-15
0.0041355 2.09543e-14
0.0041445 2.49039e-17
0.0041535 2.15565e-14
0.0041625 5.54279e-15
0.0041715 1.32951e-14
0.0041805 1.80277e-14
0.0041895 1.73221e-15
0.0041985 1.83971e-14
0.0042075 3.94853e-18
0.0042165 2.15084e-14
0.0042255 5.30707e-15
0.0042345 1.2343e-14
0.0042435 1.35034e-14
0.0042525 4.82684e-15
0.0042615 2.48186e-14
0.0042705 7.36261e-17
0.0042795 2.14021e-14
0.0042885 3.96519e-15
0.0042975 1.76181e-14
0.0043065 1.87139e-14
0.0043155 3.61437e-15
0.0043245 2.4114e-14
0.0043335 9.12519e-18
0.0043425 2.50257e-14
0.0043515 5.75431e-15
0.0043605 1.53514e-14
0.0043695 1.765e-14
0.0043785 3.51952e-15
0.0043875 2.24841e-14
0.0043965 1.13087e-17
0.0044055 2.56172e-14
0.0044145 5.32696e-15
0.0044235 1.54113e-14
0.0044325 1.55498e-14
0.0044415 5.09636e-15
0.0044505 2.4477e-14
0.0044595 1.80932e-17
0.0044685 2.58877e-14
0.0044775 4.75483e-15
0.0044865 1.62059e-14
0.0044955 1.39522e-14
0.0045045 7.79624e-15
0.0045135 3.12867e-14
0.0045225 2.35068e-16
0.0045315 1.99706e-14
0.0045405 2.51664e-15
0.0045495 1.97879e-14
0.0045585 1.5945e-14
0.0045675 5.58088e-15
0.0045765 2.16253e-14
0.0045855 7.04682e-16
0.0045945 3.16327e-14
0.0046035 4.90289e-15
0.0046125 1.68958e-14
0.0046215 1.17839e-14
0.0046305 1.08505e-14
0.0046395 3.09759e-14
0.0046485 1.76771e-16
0.0046575 3.34952e-14
0.0046665 6.89489e-15
0.0046755 1.49465e-14
0.0046845 1.25899e-14
0.0046935 8.56588e-15
0.0047025 2.7682e-14
0.0047115 1.07443e-16
0.0047205 2.66009e-14
0.0047295 2.58527e-15
0.0047385 2.4526e-14
0.0047475 1.96379e-14
0.0047565 5.54811e-15
0.0047655 2.45678e-14
0.0047745 3.14992e-16
0.0047835 3.18034e-14
0.0047925 6.61356e-15
0.0048015 1.34679e-14
0.0048105 1.14548e-14
0.0048195 7.44212e-15
0.0048285 2.34998e-14
0.0048375 2.18974e-16
0.0048465 2.39829e-14
0.0048555 2.11182e-15
0.0048645 2.02321e-14
0.0048735 1.27396e-14
0.0048825 8.79586e-15
0.0048915 2.57146e-14
0.0049005 2.5234e-16
0.0049095 2.70487e-14
0.0049185 3.75185e-15
0.0049275 1.63054e-14
0.0049365 1.2079e-14
0.0049455 6.05577e-15
0.0049545 1.75371e-14
0.0049635 1.29936e-15
0.0049725 2.57358e-14
0.0049815 1.15319e-15
0.0049905 2.61306e-14
0.0049995 1.72207e-14
0.0050085 6.32671e-15
0.0050175 2.33645e-14
0.0050265 2.70694e-16
0.0050355 2.7746e-14
0.0050445 5.62208e-15
0.0050535 1.14643e-14
0.0050625 1.00238e-14
0.0050715 5.14658e-15
0.0050805 1.73528e-14
0.0050895 9.91728e-17
0.0050985 1.4648e-14
0.0051075 4.17452e-16
0.0051165 1.77687e-14
0.0051255 8.32111e-15
0.0051345 8.68027e-15
0.0051435 2.07219e-14
0.0051525 1.05537e-16
0.0051615 1.65778e-14
0.0051705 1.16239e-15
0.0051795 1.38274e-14
0.0051885 7.82488e-15
0.0051975 4.64002e-15
0.0052065 9.39324e-15
0.0052155 2.86686e-15
0.0052245 2.20667e-14
0.0052335 1.29591e-15
0.0052425 1.28861e-14
0.0052515 5.16294e-15
0.0052605 8.37957e-15
0.0052695 1.41795e-14
0.0052785 1.12547e-15
0.0052875 1.70812e-14
0.0052965 6.69514e-16
0.0053055 1.25029e-14
0.0053145 4.27781e-15
0.0053235 8.09002e-15
0.0053325 1.13563e-14
0.0053415 2.04869e-15
0.0053505 1.63284e-14
0.0053595 3.11727e-17
0.0053685 1.99317e-14
0.0053775 8.49522e-15
0.0053865 5.74819e-15
0.0053955 1.20287e-14
0.0054045 1.05206e-15
0.0054135 1.57388e-14
0.0054225 9.41088e-16
0.0054315 9.15273e-15
0.0054405 3.10967e-15
0.0054495 6.24586e-15
0.0054585 7.22282e-15
0.0054675 3.45966e-15
0.0054765 1.8333e-14
0.0054855 7.62462e-16
0.0054945 1.00761e-14
0.0055035 3.43748e-15
0.0055125 5.99606e-15
0.0055215 8.33878e-15
0.0055305 1.24839e-15
0.0055395 9.86828e-15
0.0055485 1.10563e-18
0.0055575 1.1421e-14
0.0055665 2.54307e-15
0.0055755 6.46195e-15
0.0055845 6.57645e-15
0.0055935 2.14611e-15
0.0056025 8.97268e-15
0.0056115 5.09372e-16
0.0056205 1.71758e-14
0.0056295 3.91054e-15
0.0056385 6.80552e-15
0.0056475 7.35786e-15
0.0056565 3.02635e-15
0.0056655 1.5173e-14
0.0056745 2.01531e-16
0.0056835 1.15449e-14
0.0056925 3.87457e-15
0.0057015 5.32241e-15
0.0057105 7.82032e-15
0.0057195 1.41032e-15
0.0057285 1.26391e-14
0.0057375 7.77722e-16
0.0057465 6.3811e-15
0.0057555 2.08385e-15
0.0057645 5.64608e-15
0.0057735 1.03172e-14
0.0057825 4.44846e-17
0.0057915 2.75881e-15
0.0058005 1.73278e-16
0.0058095 8.14937e-15
0.0058185 2.3044e-15
0.0058275 3.14611e-15
0.0058365 4.74692e-15
0.0058455 4.15372e-16
0.0058545 4.83829e-15
0.0058635 5.99999e-17
0.0058725 3.70815e-15
0.0058815 8.41142e-16
0.0058905 2.05048e-15
0.0058995 1.3419e-15
0.0059085 2.01999e-15
0.0059175 4.93327e-15
0.0059265 6.43082e-18
0.0059355 3.56876e-15
0.0059445 1.16731e-16
0.0059535 4.68567e-15
0.0059625 2.81375e-15
0.0059715 1.36266e-15
0.0059805 4.58842e-15
0.0059895 2.84722e-18
0.0059985 3.62718e-15
0.0060075 4.04421e-16
0.0060165 2.45614e-15
0.0060255 1.38183e-15
0.0060345 1.11005e-15
0.0060435 1.73128e-15
0.0060525 1.23964e-15
0.0060615 6.44932e-15
0.0060705 2.55861e-16
0.0060795 5.20225e-15
0.0060885 3.52127e-15
0.0060975 1.10174e-15
0.0061065 5.21625e-15
0.0061155 1.07001e-16
0.0061245 2.64167e-15
0.0061335 5.19004e-16
0.0061425 1.80143e-15
0.0061515 1.33531e-15
0.0061605 1.30147e-15
0.0061695 4.84354e-15
0.0061785 3.52058e-16
0.0061875 1.46388e-15
0.0061965 5.28893e-16
0.0062055 9.05528e-16
0.0062145 1.35014e-15
0.0062235 5.40749e-17
0.0062325 8.96502e-16
0.0062415 6.78722e-19
0.0062505 6.41191e-16
0.0062595 2.17836e-18
0.0062685 1.377e-15
0.0062775 1.00377e-15
0.0062865 4.20228e-17
0.0062955 2.51809e-16
0.0063045 3.15802e-16
0.0063135 1.66454e-15
0.0063225 2.63934e-16
0.0063315 4.62991e-16
0.0063405 5.44738e-16
0.0063495 1.28898e-18
0.0063585 3.81217e-17
0.0063675 1.98394e-16
0.0063765 4.24465e-16
0.0063855 2.22157e-18
0.0063945 2.10345e-16
0.0064035 1.43718e-16
0.0064125 2.35732e-15
0.0064215 2.09407e-15
0.0064305 4.75203e-17
0.0064395 2.77916e-16
0.0064485 1.36399e-18
0.0064575 8.18349e-16
0.0064665 7.42059e-16
0.0064755 2.09344e-17
0.0064845 3.94322e-17
0.0064935 1.84235e-18
0.0065025 2.55516e-17
0.0065115 2.01575e-17
0.0065205 8.2118e-17
0.0065295 1.21689e-17
0.0065385 2.58251e-16
0.0065475 5.93637e-17
0.0065565 1.91214e-16
0.0065655 5.25656e-16
0.0065745 1.43019e-16
0.0065835 4.62079e-18
0.0065925 2.75619e-17
0.0066015 6.9192e-18
0.0066105 1.71808e-17
0.0066195 5.62987e-17
0.0066285 2.49085e-17
0.0066375 5.07335e-18
0.0066465 3.68936e-17
0.0066555 4.67091e-18
0.0066645 6.8707e-17
0.0066735 4.87517e-16
0.0066825 9.7013e-16
0.0066915 5.19721e-16
0.0067005 2.10529e-17
0.0067095 8.72588e-16
0.0067185 7.31119e-16
0.0067275 5.42591e-18
0.0067365 1.2099e-16
0.0067455 3.7088e-17
0.0067545 1.04999e-15
0.0067635 1.41191e-15
0.0067725 5.97687e-16
0.0067815 3.6924e-16
0.0067905 6.99899e-16
0.0067995 5.0844e-16
0.0068085 6.3995e-19
0.0068175 2.40335e-16
0.0068265 8.34396e-19
0.0068355 5.94493e-16
0.0068445 2.39694e-16
0.0068535 3.67344e-16
0.0068625 1.04666e-15
0.0068715 5.28572e-17
0.0068805 2.03619e-16
0.0068895 2.59531e-17
0.0068985 1.43512e-15
0.0069075 9.68183e-16
0.0069165 1.19546e-16
0.0069255 8.192e-16
0.0069345 1.70732e-17
0.0069435 1.46727e-15
0.0069525 4.6941e-16
0.0069615 5.47872e-16
0.0069705 1.17728e-15
0.0069795 2.51181e-18
0.0069885 4.60809e-16
0.0069975 1.31559e-17
0.0070065 3.73823e-16
0.0070155 5.95603e-17
0.0070245 2.68219e-16
0.0070335 5.78252e-17
0.0070425 5.59235e-16
0.0070515 5.71194e-16
0.0070605 2.28608e-16
0.0070695 1.3353e-15
0.0070785 3.83376e-17
0.0070875 8.37304e-16
0.0070965 1.11634e-16
0.0071055 1.37549e-15
0.0071145 1.64103e-15
0.0071235 6.29976e-17
0.0071325 1.11248e-15
0.0071415 4.84838e-17
0.0071505 2.82645e-15
0.0071595 9.92626e-16
0.0071685 9.3647e-16
0.0071775 1.87157e-15
0.0071865 7.01457e-17
0.0071955 1.60461e-15
0.0072045 3.07439e-18
0.0072135 3.13012e-15
0.0072225 1.71463e-15
0.0072315 2.49467e-16
0.0072405 4.75971e-16
0.0072495 1.36279e-15
0.0072585 4.6955e-15
0.0072675 2.83362e-16
0.0072765 2.36219e-15
0.0072855 1.28438e-15
0.0072945 8.76831e-16
0.0073035 1.97872e-15
0.0073125 1.9872e-16
0.0073215 3.22742e-15
0.0073305 5.7819e-16
0.0073395 5.09786e-16
0.0073485 7.23567e-18
0.0073575 2.52659e-15
0.0073665 1.54708e-15
0.0073755 1.37542e-15
0.0073845 5.23662e-15
0.0073935 1.69363e-16
0.0074025 2.86766e-15
0.0074115 7.356e-16
0.0074205 2.82644e-15
0.0074295 4.53516e-15
0.0074385 1.45194e-17
0.0074475 2.72627e-15
0.0074565 1.08182e-16
0.0074655 2.22947e-15
0.0074745 6.11658e-16
0.0074835 1.90335e-15
0.0074925 2.36009e-15
0.0075015 3.96556e-16
0.0075105 2.99301e-15
0.0075195 5.32225e-20
0.0075285 3.57475e-15
0.0075375 9.31122e-16
0.0075465 1.69939e-15
0.0075555 1.59675e-15
0.0075645 1.30752e-15
0.0075735 4.60809e-15
0.0075825 5.79383e-19
0.0075915 5.14397e-15
0.0076005 1.64964e-15
0.0076095 1.82296e-15
0.0076185 2.44243e-15
0.0076275 9.95137e-16
0.0076365 6.12214e-15
0.0076455 5.57197e-16
0.0076545 1.99809e-15
0.0076635 5.74752e-16
0.0076725 2.04898e-15
0.0076815 2.34492e-15
0.0076905 3.97601e-16
0.0076995 2.44586e-15
0.0077085 4.65404e-17
0.0077175 2.88146e-15
0.0077265 1.7227e-17
0.0077355 5.97739e-15
0.0077445 4.7551e-15
0.0077535 3.06558e-16
0.0077625 2.47044e-15
0.0077715 5.40055e-16
0.0077805 8.18408e-15
0.0077895 2.30344e-15
0.0077985 1.80331e-15
0.0078075 2.41395e-15
0.0078165 7.80683e-16
0.0078255 3.67492e-15
0.0078345 4.35912e-17
0.0078435 5.19803e-15
0.0078525 1.42684e-15
0.0078615 1.51582e-15
0.0078705 1.48135e-15
0.0078795 1.01828e-15
0.0078885 2.76986e-15
0.0078975 2.27825e-16
0.0079065 4.21761e-15
0.0079155 2.22703e-16
0.0079245 3.27706e-15
0.0079335 1.01252e-15
0.0079425 3.82821e-15
0.0079515 6.92338e-15
0.0079605 1.92276e-17
0.0079695 5.39201e-15
0.0079785 6.29414e-16
0.0079875 3.67757e-15
0.0079965 2.42211e-15
0.0080055 1.72885e-15
0.0080145 5.21342e-15
0.0080235 3.79512e-19
0.0080325 2.83482e-15
0.0080415 1.81092e-17
0.0080505 7.94613e-15
0.0080595 4.69986e-15
0.0080685 1.09645e-15
0.0080775 4.67661e-15
0.0080865 7.77422e-17
0.0080955 5.66544e-15
0.0081045 9.06317e-16
0.0081135 2.75307e-15
0.0081225 1.9648e-15
0.0081315 1.17165e-15
0.0081405 2.30726e-15
0.0081495 1.38803e-15
0.0081585 9.34509e-15
0.0081675 1.48147e-15
0.0081765 2.68779e-15
0.0081855 1.72864e-15
0.0081945 2.1102e-15
0.0082035 4.81518e-15
0.0082125 1.25181e-16
0.0082215 5.54022e-15
0.0082305 7.64832e-16
0.0082395 2.57095e-15
0.0082485 1.32761e-15
0.0082575 2.12717e-15
0.0082665 4.23353e-15
0.0082755 8.61249e-17
0.0082845 3.23953e-15
0.0082935 1.92607e-18
0.0083025 5.59356e-15
0.0083115 1.70394e-15
0.0083205 3.67064e-15
0.0083295 7.31714e-15
0.0083385 6.14393e-18
0.0083475 3.48505e-15
0.0083565 5.34656e-17
0.0083655 5.1834e-15
0.0083745 2.55589e-15
0.0083835 2.04532e-15
0.0083925 6.00601e-15
0.0084015 9.32892e-17
0.0084105 1.78852e-15
0.0084195 3.33268e-17
0.0084285 5.7173e-15
0.0084375 2.86435e-15
0.0084465 8.82163e-16
0.0084555 2.20952e-15
0.0084645 5.93458e-16
0.0084735 4.36003e-15
0.0084825 1.39032e-17
0.0084915 5.63359e-15
0.0085005 3.05904e-15
0.0085095 7.62835e-16
0.0085185 1.86856e-15
0.0085275 1.01774e-15
0.0085365 6.21956e-15
0.0085455 4.72791e-16
0.0085545 2.9989e-15
0.0085635 1.32507e-15
0.0085725 2.0534e-15
0.0085815 4.05331e-15
0.0085905 7.75809e-17
0.0085995 3.98087e-15
0.0086085 6.55912e-16
0.0086175 1.05123e-15
0.0086265 2.14456e-16
0.0086355 2.12441e-15
0.0086445 1.8868e-15
0.0086535 7.55816e-16
0.0086625 3.22004e-15
0.0086715 4.65596e-17
0.0086805 4.60469e-15
0.0086895 7.15482e-16
0.0086985 4.08198e-15
0.0087075 5.28561e-15
0.0087165 1.97084e-16
0.0087255 5.04491e-15
0.0087345 4.06732e-16
0.0087435 3.25101e-15
0.0087525 2.1183e-15
0.0087615 1.0315e-15
0.0087705 3.87018e-15
0.0087795 1.40594e-16
0.0087885 8.68018e-16
0.0087975 4.93102e-18
0.0088065 2.28542e-15
0.0088155 7.06072e-16
0.0088245 1.09384e-15
0.0088335 1.57046e-15
0.0088425 2.06635e-16
0.0088515 1.55116e-15
0.0088605 9.52778e-17
0.0088695 3.79103e-15
0.0088785 1.50859e-15
0.0088875 4.67403e-16
0.0088965 7.26546e-16
0.0089055 7.55813e-16
0.0089145 2.80095e-15
0.0089235 4.45634e-17
0.0089325 1.78866e-15
0.0089415 4.83673e-16
0.0089505 1.00153e-15
0.0089595 1.12252e-15
0.0089685 3.18834e-16
0.0089775 1.74124e-15
0.0089865 2.7638e-17
0.0089955 6.59781e-16
0.0090045 3.35933e-17
0.0090135 2.795e-15
0.0090225 1.35828e-15
0.0090315 7.14696e-16
0.0090405 2.16869e-15
0.0090495 2.4827e-17
0.0090585 2.16484e-15
0.0090675 9.08242e-17
0.0090765 3.19506e-15
0.0090855 3.07349e-15
0.0090945 2.22827e-16
0.0091035 3.86278e-15
0.0091125 1.15955e-15
0.0091215 2.12642e-16
0.0091305 1.76946e-16
0.0091395 5.0436e-16
0.0091485 8.88116e-16
0.0091575 4.36608e-18
0.0091665 6.79578e-17
0.0091755 3.55807e-16
0.0091845 1.30222e-15
0.0091935 7.47064e-17
0.0092025 6.90637e-16
0.0092115 3.21867e-16
0.0092205 2.20885e-16
0.0092295 1.4846e-16
0.0092385 8.6563e-16
0.0092475 2.1576e-15
0.0092565 5.29451e-17
0.0092655 1.12277e-15
0.0092745 2.00227e-16
0.0092835 1.54937e-15
0.0092925 2.44093e-15
0.0093015 4.02622e-18
0.0093105 1.09786e-15
0.0093195 4.93259e-17
0.0093285 1.30228e-15
0.0093375 7.37114e-16
0.0093465 5.98682e-16
0.0093555 2.17303e-15
0.0093645 1.21546e-16
0.0093735 8.88558e-16
0.0093825 5.97719e-16
0.0093915 2.79335e-17
0.0094005 3.49646e-17
0.0094095 5.70574e-16
0.0094185 1.30173e-15
0.0094275 1.13915e-16
0.0094365 2.41788e-16
0.0094455 6.54561e-17
0.0094545 1.97835e-16
0.0094635 1.45829e-16
0.0094725 1.60397e-16
0.0094815 6.2528e-16
0.0094905 1.61134e-16
0.0094995 3.0221e-18
0.0095085 1.06691e-16
0.0095175 4.53905e-16
0.0095265 1.55547e-16
0.0095355 3.03754e-17
0.0095445 6.2092e-17
0.0095535 6.02585e-18
0.0095625 3.92858e-19
0.0095715 3.24124e-16
0.0095805 6.33775e-16
0.0095895 3.87608e-17
0.0095985 2.29223e-16
0.0096075 1.16054e-16
0.0096165 7.82828e-17
0.0096255 1.16233e-16
0.0096345 8.93488e-17
0.0096435 4.64015e-16
0.0096525 7.44262e-17
0.0096615 2.9494e-17
0.0096705 5.82967e-17
0.0096795 1.2225e-15
0.0096885 1.54175e-15
0.0096975 1.19173e-16
0.0097065 3.82733e-16
0.0097155 5.84907e-16
0.0097245 1.04711e-16
0.0097335 4.77759e-19
0.0097425 2.82776e-19
0.0097515 3.34785e-19
0.0097605 5.57334e-19
0.0097695 7.86138e-17
0.0097785 3.54951e-16
0.0097875 1.30254e-16
0.0097965 2.14711e-16
0.0098055 1.04113e-15
0.0098145 4.21536e-16
0.0098235 1.45072e-17
0.0098325 5.70414e-17
0.0098415 1.39795e-16
0.0098505 5.20719e-16
0.0098595 3.13079e-17
0.0098685 3.84619e-16
0.0098775 4.97081e-16
0.0098865 2.79314e-17
0.0098955 1.64697e-18
0.0099045 3.24972e-16
0.0099135 1.68866e-15
0.0099225 1.78557e-15
0.0099315 5.36378e-16
0.0099405 3.0222e-17
0.0099495 2.95766e-19
0.0099585 9.16132e-20
0.0099675 2.60777e-17
0.0099765 1.68122e-16
0.0099855 2.54866e-16
0.0099945 1.75821e-16
0.0100035 9.4462e-17
0.0100125 7.52241e-17
0.0100215 9.49153e-17
0.0100305 1.05265e-16
0.0100395 3.52615e-17
0.0100485 2.9963e-17
0.0100575 3.12323e-16
0.0100665 3.44573e-16
0.0100755 2.9833e-17
0.0100845 5.56594e-17
0.0100935 3.66569e-17
0.0101025 6.5886e-18
0.0101115 3.40355e-18
0.0101205 4.33924e-16
0.0101295 9.54526e-16
0.0101385 2.15002e-16
0.0101475 1.12807e-16
0.0101565 1.92366e-16
0.0101655 4.36092e-17
0.0101745 4.18952e-16
0.0101835 7.56545e-17
0.0101925 1.12259e-16
0.0102015 1.37592e-16
0.0102105 7.99998e-19
0.0102195 1.46133e-17
0.0102285 5.84046e-16
0.0102375 1.24522e-15
0.0102465 4.56059e-16
0.0102555 6.06991e-18
0.0102645 9.66983e-18
0.0102735 2.30884e-16
0.0102825 1.30133e-16
0.0102915 1.04613e-16
0.0103005 5.08572e-16
0.0103095 1.58991e-16
0.0103185 7.42905e-18
0.0103275 1.87798e-16
0.0103365 9.15933e-16
0.0103455 5.07625e-16
0.0103545 2.77999e-17
0.0103635 3.30789e-16
0.0103725 7.97903e-18
0.0103815 1.52125e-16
0.0103905 1.13295e-18
0.0103995 4.13306e-16
0.0104085 3.65586e-16
0.0104175 2.26493e-18
0.0104265 6.25544e-17
0.0104355 6.84224e-17
0.0104445 2.0823e-16
0.0104535 1.46359e-16
0.0104625 1.90737e-15
0.0104715 1.52498e-15
0.0104805 1.1403e-17
0.0104895 3.6867e-16
0.0104985 7.24767e-17
0.0105075 4.90283e-17
0.0105165 5.87652e-19
0.0105255 2.83128e-16
0.0105345 1.95488e-16
0.0105435 1.56154e-18
0.0105525 7.86722e-17
0.0105615 1.29918e-15
0.0105705 1.79864e-15
0.0105795 7.90226e-17
0.0105885 8.73216e-16
0.0105975 1.04958e-15
0.0106065 1.27707e-16
0.0106155 6.37585e-17
0.0106245 7.59179e-16
0.0106335 1.0337e-15
0.0106425 1.48173e-17
0.0106515 5.11178e-16
0.0106605 1.44107e-16
0.0106695 2.4569e-16
0.0106785 2.27298e-16
0.0106875 2.10343e-16
0.0106965 8.11947e-16
0.0107055 4.81394e-17
0.0107145 2.45269e-16
0.0107235 5.08335e-17
0.0107325 1.07073e-16
0.0107415 4.94936e-18
0.0107505 1.02774e-15
0.0107595 9.71709e-16
0.0107685 6.25121e-17
0.0107775 1.13661e-15
0.0107865 1.58653e-16
0.0107955 3.29971e-16
0.0108045 5.33853e-17
0.0108135 8.18272e-16
0.0108225 8.07573e-16
0.0108315 2.59105e-16
0.0108405 1.64128e-15
0.0108495 5.29659e-18
0.0108585 2.6958e-15
0.0108675 2.54361e-15
0.0108765 1.17648e-18
0.0108855 9.49669e-16
0.0108945 1.37629e-16
0.0109035 7.44192e-17
0.0109125 1.04624e-16
0.0109215 1.12447e-15
0.0109305 1.3672e-16
0.0109395 1.0134e-15
0.0109485 8.24016e-16
0.0109575 7.04867e-16
0.0109665 3.53469e-15
0.0109755 5.61666e-16
0.0109845 8.46472e-16
0.0109935 7.61318e-16
0.0110025 1.26337e-16
0.0110115 1.62447e-16
0.0110205 1.04688e-15
0.0110295 2.15514e-15
0.0110385 1.92663e-16
0.0110475 6.3297e-15
0.0110565 3.82482e-15
0.0110655 3.11609e-16
0.0110745 3.02104e-15
0.0110835 1.61492e-16
0.0110925 1.02269e-15
0.0111015 7.0258e-17
0.0111105 1.83089e-15
0.0111195 1.46554e-15
0.0111285 2.30784e-16
0.0111375 9.37023e-16
0.0111465 5.52756e-16
0.0111555 5.07868e-15
0.0111645 1.80575e-15
0.0111735 5.43337e-16
0.0111825 1.50973e-15
0.0111915 1.26335e-18
0.0112005 2.75236e-16
0.0112095 4.99611e-16
0.0112185 2.73228e-15
0.0112275 2.39532e-16
0.0112365 1.92082e-15
0.0112455 1.75489e-15
0.0112545 3.24852e-16
0.0112635 2.41565e-15
0.0112725 9.02657e-17
0.0112815 1.57287e-15
0.0112905 8.88787e-16
0.0112995 2.15562e-16
0.0113085 4.75561e-16
0.0113175 2.15143e-16
0.0113265 9.29542e-16
0.0113355 2.18274e-17
0.0113445 1.65652e-15
0.0113535 7.87141e-16
0.0113625 4.52099e-17
0.0113715 6.9594e-17
0.0113805 2.55314e-16
0.0113895 1.42962e-16
0.0113985 7.66387e-16
0.0114075 1.9878e-15
0.0114165 6.01278e-17
0.0114255 9.40507e-16
0.0114345 1.2526e-16
0.0114435 1.47636e-15
0.0114525 1.61893e-15
0.0114615 2.57561e-16
0.0114705 3.00791e-15
0.0114795 7.09584e-16
0.0114885 3.64681e-16
0.0114975 1.12268e-16
0.0115065 1.33162e-15
0.0115155 1.91327e-15
0.0115245 9.68173e-17
0.0115335 3.11066e-15
0.0115425 1.40912e-15
0.0115515 1.01433e-16
0.0115605 3.53723e-16
0.0115695 1.38408e-16
0.0115785 6.11642e-16
0.0115875 1.20899e-19
0.0115965 3.76799e-16
0.0116055 5.21435e-18
0.0116145 3.17647e-16
0.0116235 7.12527e-19
0.0116325 1.12748e-15
0.0116415 9.02179e-16
0.0116505 1.10188e-16
0.0116595 1.132e-15
0.0116685 2.36509e-16
0.0116775 1.16958e-17
0.0116865 2.5675e-16
0.0116955 1.83095e-15
0.0117045 8.64173e-16
0.0117135 1.08725e-16
0.0117225 3.45995e-16
0.0117315 2.13897e-16
0.0117405 9.99176e-16
0.0117495 1.36772e-17
0.0117585 2.16302e-15
0.0117675 1.4951e-15
0.0117765 5.09432e-18
0.0117855 6.29239e-17
0.0117945 7.97096e-16
0.0118035 1.77533e-15
0.0118125 6.21454e-20
0.0118215 1.88619e-15
0.0118305 5.99807e-16
0.0118395 7.33488e-16
0.0118485 9.23949e-16
0.0118575 4.84084e-16
0.0118665 2.31673e-15
0.0118755 3.77083e-19
0.0118845 3.51935e-15
0.0118935 2.12148e-15
0.0119025 4.11438e-16
0.0119115 2.06888e-15
0.0119205 1.08584e-19
0.0119295 1.74826e-15
0.0119385 2.26964e-16
0.0119475 1.54629e-15
0.0119565 1.82026e-15
0.0119655 7.11444e-18
0.0119745 5.33947e-16
0.0119835 3.22259e-17
0.0119925 6.27214e-16
0.0120015 7.48114e-17
0.0120105 2.39167e-15
0.0120195 9.592e-16
0.0120285 5.44549e-16
0.0120375 1.15547e-15
0.0120465 2.11186e-16
0.0120555 2.22474e-15
0.0120645 1.5585e-16
0.0120735 1.38953e-15
0.0120825 6.32684e-16
0.0120915 1.0066e-15
0.0121005 2.10055e-15
0.0121095 8.09897e-17
0.0121185 3.25528e-15
0.0121275 1.03495e-15
0.0121365 7.52998e-16
0.0121455 1.61107e-15
0.0121545 1.25535e-18
0.0121635 5.15163e-16
0.0121725 1.25902e-17
0.0121815 8.85574e-16
0.0121905 8.31447e-17
0.0121995 7.40565e-16
0.0122085 4.69724e-16
0.0122175 2.6681e-16
0.0122265 6.20858e-16
0.0122355 1.29751e-16
0.0122445 1.28509e-15
0.0122535 7.7421e-17
0.0122625 8.12981e-16
0.0122715 2.93719e-16
0.0122805 7.09774e-16
0.0122895 1.1562e-15
0.0122985 1.3472e-16
0.0123075 2.35298e-15
0.0123165 8.40673e-16
0.0123255 1.55036e-16
0.0123345 2.70523e-16
0.0123435 9.57711e-17
0.0123525 1.02792e-16
0.0123615 6.94896e-16
0.0123705 1.9409e-15
0.0123795 7.44663e-17
0.0123885 1.23969e-15
0.0123975 7.42861e-16
0.0124065 3.3679e-16
0.0124155 1.20829e-15
0.0124245 5.86259e-18
0.0124335 6.31592e-16
0.0124425 3.38516e-17
0.0124515 7.01764e-16
0.0124605 2.81997e-16
0.0124695 5.83472e-16
0.0124785 1.19417e-15
0.0124875 2.52811e-17
0.0124965 1.74558e-15
0.0125055 7.6068e-16
0.0125145 2.08449e-16
0.0125235 8.70532e-16
0.0125325 1.24682e-16
0.0125415 3.81794e-18
0.0125505 3.40553e-16
0.0125595 1.14333e-15
0.0125685 4.21621e-16
0.0125775 3.29771e-18
0.0125865 1.82442e-18
0.0125955 2.94684e-16
0.0126045 1.44099e-16
0.0126135 2.54622e-16
0.0126225 7.92075e-16
0.0126315 4.16474e-17
0.0126405 2.33532e-16
0.0126495 1.5212e-18
0.0126585 1.05075e-15
0.0126675 1.28532e-15
0.0126765 4.84326e-18
0.0126855 6.08849e-16
0.0126945 1.47577e-16
0.0127035 2.89062e-16
0.0127125 5.32128e-16
0.0127215 5.0486e-17
0.0127305 7.98707e-18
0.0127395 4.0776e-16
0.0127485 1.10898e-15
0.0127575 4.09267e-16
0.0127665 9.87105e-18
0.0127755 8.99292e-17
0.0127845 8.47241e-19
0.0127935 2.35232e-18
0.0128025 6.24524e-17
0.0128115 1.5826e-16
0.0128205 4.92061e-17
0.0128295 4.31943e-17
0.0128385 3.32405e-16
0.0128475 5.19814e-16
0.0128565 5.76469e-18
0.0128655 6.97467e-16
0.0128745 9.48484e-16
0.0128835 8.36415e-17
0.0128925 2.88108e-17
0.0129015 6.75562e-17
0.0129105 6.56773e-16
0.0129195 2.11825e-16
0.0129285 3.0588e-16
0.0129375 1.01059e-15
0.0129465 1.71248e-16
0.0129555 9.59264e-17
0.0129645 2.73619e-17
0.0129735 3.23828e-16
0.0129825 6.92665e-16
0.0129915 8.03905e-17
0.0130005 1.224e-16
0.0130095 1.37121e-16
0.0130185 4.97339e-19
0.0130275 3.25966e-17
0.0130365 1.76789e-18
0.0130455 7.9994e-17
0.0130545 6.73394e-17
0.0130635 1.14109e-18
0.0130725 6.66061e-17
0.0130815 2.95558e-16
0.0130905 4.10431e-16
0.0130995 9.58324e-17
0.0131085 1.09869e-16
0.0131175 5.20848e-16
0.0131265 2.19977e-16
0.0131355 1.12677e-17
0.0131445 1.02389e-16
0.0131535 5.72296e-19
0.0131625 2.1303e-16
0.0131715 2.9738e-16
0.0131805 1.26624e-16
0.0131895 4.18859e-17
0.0131985 1.28478e-17
0.0132075 1.21017e-17
0.0132165 1.70915e-16
0.0132255 2.392e-16
0.0132345 5.55685e-17
0.0132435 3.76085e-18
0.0132525 1.93337e-17
0.0132615 1.54341e-17
0.0132705 6.01809e-17
0.0132795 1.63167e-16
0.0132885 7.7223e-17
0.0132975 2.95151e-17
0.0133065 3.38387e-16
0.0133155 4.13284e-16
0.0133245 1.9701e-16
0.0133335 6.02428e-17
0.0133425 1.35113e-17
0.0133515 2.92899e-19
0.0133605 1.0503e-17
0.0133695 1.57017e-19
0.0133785 2.55571e-17
0.0133875 1.17258e-17
0.0133965 6.3016e-17
0.0134055 3.32571e-16
0.0134145 2.58733e-16
0.0134235 1.74299e-17
0.0134325 2.06506e-17
0.0134415 1.24472e-17
0.0134505 2.12839e-19
0.0134595 8.30396e-18
0.0134685 1.2682e-16
0.0134775 2.39929e-16
0.0134865 7.56405e-17
0.0134955 3.52753e-17
0.0135045 3.05868e-16
0.0135135 2.40604e-16
0.0135225 3.20896e-19
0.0135315 3.20314e-16
0.0135405 4.15698e-16
0.0135495 4.38825e-17
0.0135585 3.62295e-17
0.0135675 2.79805e-18
0.0135765 1.40109e-16
0.0135855 1.43447e-16
0.0135945 2.74868e-17
0.0136035 2.46049e-16
0.0136125 8.43055e-19
0.0136215 7.10591e-16
0.0136305 7.59542e-16
0.0136395 6.54695e-18
0.0136485 8.55412e-16
0.0136575 5.42423e-16
0.0136665 1.76353e-18
0.0136755 3.83825e-17
0.0136845 1.02708e-16
0.0136935 2.84516e-16
0.0137025 1.00393e-17
0.0137115 5.9925e-16
0.0137205 2.59978e-16
0.0137295 1.18213e-16
0.0137385 3.04326e-16
0.0137475 4.72303e-17
0.0137565 8.13848e-16
0.0137655 3.564e-16
0.0137745 3.24522e-17
0.0137835 1.01124e-16
0.0137925 4.8565e-17
0.0138015 1.99729e-16
0.0138105 6.98253e-18
0.0138195 3.51284e-16
0.0138285 9.41831e-17
0.0138375 1.14432e-16
0.0138465 1.22375e-16
0.0138555 1.10354e-16
0.0138645 5.89785e-16
0.0138735 1.78464e-16
0.0138825 1.70387e-17
0.0138915 2.32497e-17
0.0139005 2.48367e-17
0.0139095 1.42191e-17
0.0139185 1.07566e-16
0.0139275 3.4662e-16
0.0139365 1.80882e-16
0.0139455 7.61278e-17
0.0139545 1.71392e-16
0.0139635 1.74229e-16
0.0139725 2.07384e-17
0.0139815 7.2373e-16
0.0139905 8.43603e-16
0.0139995 9.57191e-17
0.0140085 4.77975e-17
0.0140175 3.9015e-17
0.0140265 1.06476e-18
0.0140355 1.78113e-17
0.0140445 7.66113e-17
0.0140535 3.06616e-19
0.0140625 1.74067e-16
0.0140715 1.58686e-16
0.0140805 6.30987e-19
0.0140895 5.55975e-18
0.0140985 1.75498e-16
0.0141075 4.68813e-16
0.0141165 4.03732e-17
0.0141255 1.19696e-16
0.0141345 1.73984e-18
0.0141435 7.3942e-16
0.0141525 6.95671e-16
0.0141615 1.49913e-16
0.0141705 1.78007e-15
0.0141795 5.12662e-16
0.0141885 4.43262e-16
0.0141975 8.73073e-16
0.0142065 5.6512e-17
0.0142155 1.40896e-15
0.0142245 4.18817e-16
0.0142335 2.74009e-16
0.0142425 5.27099e-16
0.0142515 2.50565e-18
0.0142605 1.38847e-16
0.0142695 7.38472e-17
0.0142785 5.85217e-16
0.0142875 2.86861e-17
0.0142965 5.26153e-16
0.0143055 3.19308e-16
0.0143145 2.35144e-16
0.0143235 9.1129e-16
0.0143325 5.95764e-17
0.0143415 3.16293e-16
0.0143505 1.51719e-16
0.0143595 7.8582e-17
0.0143685 1.08224e-16
0.0143775 4.11548e-17
0.0143865 9.04851e-17
0.0143955 6.97264e-17
0.0144045 2.49588e-16
0.0144135 3.06517e-17
0.0144225 7.43043e-16
0.0144315 2.46986e-16
0.0144405 2.27157e-16
0.0144495 4.88141e-16
0.0144585 5.73366e-18
0.0144675 3.98956e-16
0.0144765 2.93426e-17
0.0144855 2.57167e-16
0.0144945 1.05269e-16
0.0145035 1.30644e-16
0.0145125 1.18741e-16
0.0145215 2.27533e-16
0.0145305 7.64647e-16
0.0145395 3.90696e-17
0.0145485 3.40424e-16
0.0145575 1.0647e-16
0.0145665 3.18722e-16
0.0145755 6.49247e-16
0.0145845 3.92302e-17
0.0145935 4.81306e-17
0.0146025 6.07279e-18
0.0146115 4.14847e-17
0.0146205 3.67605e-16
0.0146295 2.21324e-15
0.0146385 1.30584e-15
0.0146475 3.34572e-17
0.0146565 7.29213e-16
0.0146655 3.04992e-17
0.0146745 4.44529e-16
0.0146835 1.55874e-16
0.0146925 2.53337e-16
0.0147015 4.30606e-16
0.0147105 3.16157e-18
0.0147195 1.59151e-16
0.0147285 2.29189e-17
0.0147375 3.55509e-16
0.0147465 3.3101e-18
0.0147555 5.37315e-16
0.0147645 2.68722e-16
0.0147735 2.04248e-16
0.0147825 5.30323e-16
0.0147915 1.17296e-17
0.0148005 5.71452e-16
0.0148095 3.89705e-17
0.0148185 4.59866e-16
0.0148275 1.70343e-16
0.0148365 5.19472e-16
0.0148455 1.04871e-15
0.0148545 4.80519e-18
0.0148635 1.13427e-15
0.0148725 3.08303e-16
0.0148815 5.40814e-16
0.0148905 1.08608e-15
0.0148995 1.39463e-17
0.0149085 3.22092e-16
0.0149175 4.62601e-18
0.0149265 4.77772e-16
0.0149355 2.2646e-16
0.0149445 1.5261e-16
0.0149535 4.23567e-16
0.0149625 7.19652e-18
0.0149715 8.29022e-17
0.0149805 1.76759e-17
0.0149895 3.4752e-16
0.0149985 9.10934e-17
0.0150075 8.71018e-17
0.0150165 9.46267e-17
0.0150255 1.79811e-17
0.0150345 1.60647e-17
0.0150435 2.08619e-16
0.0150525 4.35172e-16
0.0150615 2.69725e-19
0.0150705 3.72829e-16
0.0150795 9.49059e-17
0.0150885 1.7203e-16
0.0150975 1.26699e-16
0.0151065 2.45541e-16
0.0151155 7.46019e-16
0.0151245 1.7491e-17
0.0151335 4.45102e-16
0.0151425 1.40963e-16
0.0151515 2.90886e-16
0.0151605 4.79717e-16
0.0151695 1.72724e-17
0.0151785 4.89601e-16
0.0151875 5.90864e-17
0.0151965 1.70719e-16
0.0152055 3.59191e-17
0.0152145 3.14612e-16
0.0152235 4.04089e-16
0.0152325 1.45691e-17
0.0152415 3.46441e-16
0.0152505 1.22432e-17
0.0152595 3.04749e-16
0.0152685 2.3023e-16
0.0152775 2.52624e-18
0.0152865 6.80027e-18
0.0152955 3.22066e-16
0.0153045 2.52676e-16
0.0153135 1.32645e-16
0.0153225 8.73975e-16
0.0153315 1.2822e-16
0.0153405 4.21855e-16
0.0153495 6.49441e-16
0.0153585 9.94439e-18
0.0153675 1.28397e-16
0.0153765 3.54719e-18
0.0153855 3.58963e-17
0.0153945 8.48298e-17
0.0154035 6.86864e-16
0.0154125 2.52629e-16
0.0154215 1.26158e-16
0.0154305 3.25685e-16
0.0154395 5.11389e-18
0.0154485 2.56806e-16
0.0154575 7.68791e-18
0.0154665 1.59251e-16
0.0154755 1.76016e-18
0.0154845 4.36487e-16
0.0154935 2.00506e-16
0.0155025 3.47994e-16
0.0155115 9.45137e-16
0.0155205 1.18064e-19
0.0155295 1.17095e-15
0.0155385 5.76508e-16
0.0155475 2.97015e-16
0.0155565 1.15641e-15
0.0155655 5.15924e-17
0.0155745 5.1285e-16
0.0155835 2.98735e-16
0.0155925 4.16559e-17
0.0156015 7.6837e-17
0.0156105 1.14217e-16
0.0156195 3.06816e-16
0.0156285 1.61213e-19
0.0156375 1.92404e-16
0.0156465 5.89876e-18
0.0156555 2.12353e-16
0.0156645 1.00888e-16
0.0156735 3.55539e-17
0.0156825 1.46696e-17
0.0156915 2.07516e-16
0.0157005 2.36976e-16
0.0157095 7.94742e-17
0.0157185 4.76956e-16
0.0157275 1.88317e-17
0.0157365 1.53637e-15
0.0157455 1.1598e-15
0.0157545 6.10192e-17
0.0157635 9.92009e-16
0.0157725 8.2168e-17
0.0157815 4.2712e-16
0.0157905 1.02955e-16
0.0157995 6.47712e-16
0.0158085 8.96385e-16
0.0158175 1.08393e-16
0.0158265 2.02753e-15
0.0158355 8.90336e-16
0.0158445 1.7888e-16
0.0158535 9.70121e-16
0.0158625 1.48399e-16
0.0158715 4.87059e-17
0.0158805 4.90849e-19
0.0158895 2.13596e-16
0.0158985 1.24994e-16
0.0159075 4.22929e-18
0.0159165 1.21459e-18
0.0159255 1.42781e-16
0.0159345 1.13356e-16
0.0159435 5.32762e-17
0.0159525 2.35188e-16
0.0159615 1.20215e-19
0.0159705 2.41462e-16
0.0159795 1.1975e-17
0.0159885 4.87047e-16
0.0159975 5.28555e-16
0.0160065 3.88056e-17
0.0160155 7.9656e-16
0.0160245 2.13595e-16
0.0160335 2.05449e-16
0.0160425 3.76842e-16
0.0160515 6.78435e-18
0.0160605 3.06732e-16
0.0160695 1.85244e-17
0.0160785 2.93059e-16
0.0160875 2.67744e-16
0.0160965 4.35887e-17
0.0161055 6.75036e-16
0.0161145 6.55199e-16
0.0161235 1.61289e-16
0.0161325 1.27996e-19
0.0161415 1.08175e-16
0.0161505 2.92368e-16
0.0161595 2.2649e-16
0.0161685 1.47051e-17
0.0161775 2.38843e-17
0.0161865 1.03552e-18
0.0161955 4.27219e-17
0.0162045 2.33165e-18
0.0162135 2.06967e-16
0.0162225 3.17262e-16
0.0162315 5.55646e-18
0.0162405 6.98052e-16
0.0162495 7.36169e-16
0.0162585 1.65921e-17
0.0162675 2.81533e-16
0.0162765 2.96747e-16
0.0162855 6.05766e-17
0.0162945 5.37877e-17
0.0163035 2.57463e-16
0.0163125 3.0323e-16
0.0163215 8.34216e-18
0.0163305 2.55454e-16
0.0163395 5.07566e-16
0.0163485 1.74263e-16
0.0163575 4.84931e-18
0.0163665 1.36591e-16
0.0163755 8.5974e-17
0.0163845 1.19396e-17
0.0163935 2.77912e-16
0.0164025 3.0382e-16
0.0164115 3.46002e-18
0.0164205 3.07467e-16
0.0164295 5.35171e-16
0.0164385 1.52302e-16
0.0164475 1.54963e-18
0.0164565 5.03773e-19
0.0164655 3.74497e-17
0.0164745 2.26362e-17
0.0164835 5.79631e-17
0.0164925 3.33535e-16
0.0165015 2.44963e-16
0.0165105 7.64303e-18
0.0165195 7.16303e-17
0.0165285 1.17314e-16
0.0165375 4.39185e-17
0.0165465 2.4998e-18
0.0165555 6.19358e-19
0.0165645 1.52835e-19
0.0165735 2.2717e-18
0.0165825 7.5629e-17
0.0165915 4.03401e-16
0.0166005 5.32739e-16
0.0166095 5.2907e-17
0.0166185 3.4152e-16
0.0166275 9.05819e-16
0.0166365 2.53407e-16
0.0166455 4.81254e-17
0.0166545 1.55143e-16
0.0166635 5.44646e-19
0.0166725 3.33487e-17
0.0166815 8.44278e-17
0.0166905 6.23503e-16
0.0166995 2.11288e-16
0.0167085 3.58073e-16
0.0167175 1.7448e-15
0.0167265 9.77859e-16
0.0167355 4.52542e-18
0.0167445 2.80132e-16
0.0167535 1.90409e-16
0.0167625 2.44101e-17
0.0167715 1.52732e-17
0.0167805 5.43193e-17
0.0167895 2.53768e-17
0.0167985 1.72691e-17
0.0168075 1.78192e-16
0.0168165 3.32458e-16
0.0168255 3.14919e-16
0.0168345 9.35175e-17
0.0168435 3.0797e-17
0.0168525 3.36647e-16
0.0168615 3.07911e-16
0.0168705 3.5391e-17
0.0168795 2.87683e-18
0.0168885 1.07708e-17
0.0168975 4.87445e-17
0.0169065 1.66919e-17
0.0169155 4.43373e-16
0.0169245 4.98315e-16
0.0169335 3.20276e-18
0.0169425 4.31867e-16
0.0169515 6.40429e-16
0.0169605 2.39164e-16
0.0169695 6.65349e-17
0.0169785 5.46586e-17
0.0169875 6.19747e-18
0.0169965 1.28067e-16
0.0170055 4.35629e-16
0.0170145 2.19034e-16
0.0170235 7.20544e-19
0.0170325 5.26284e-17
0.0170415 1.43795e-17
0.0170505 1.30724e-18
0.0170595 2.70034e-18
0.0170685 3.29958e-18
0.0170775 7.32975e-18
0.0170865 4.18944e-18
0.0170955 1.56248e-16
0.0171045 2.95536e-16
0.0171135 5.80073e-17
0.0171225 2.45331e-17
0.0171315 8.15058e-18
0.0171405 9.91273e-17
0.0171495 1.05382e-16
0.0171585 8.75231e-17
0.0171675 6.05946e-16
0.0171765 1.27658e-16
0.0171855 3.50698e-16
0.0171945 8.90978e-16
0.0172035 1.03527e-16
0.0172125 1.77401e-16
0.0172215 1.56974e-16
0.0172305 1.63416e-17
0.0172395 5.15589e-17
0.0172485 9.45186e-17
0.0172575 5.22255e-16
0.0172665 1.9053e-16
0.0172755 5.33178e-17
0.0172845 3.79884e-16
0.0172935 3.42093e-16
0.0173025 1.86776e-16
0.0173115 6.36622e-17
0.0173205 7.96636e-18
0.0173295 1.97975e-16
0.0173385 1.63022e-16
0.0173475 2.38608e-18
0.0173565 1.17208e-16
0.0173655 1.54634e-17
0.0173745 2.80426e-17
0.0173835 6.78378e-18
0.0173925 3.24327e-16
0.0174015 2.37347e-16
0.0174105 1.36415e-16
0.0174195 1.27338e-15
0.0174285 9.92115e-16
0.0174375 7.13682e-17
0.0174465 5.3085e-17
0.0174555 7.81705e-17
0.0174645 1.54841e-16
0.0174735 5.12251e-16
0.0174825 5.04676e-16
0.0174915 3.59698e-18
0.0175005 4.14814e-16
0.0175095 4.70476e-16
0.0175185 8.67931e-17
0.0175275 5.09732e-17
0.0175365 2.59756e-16
0.0175455 1.43416e-16
0.0175545 2.11327e-16
0.0175635 1.1483e-15
0.0175725 3.35962e-16
0.0175815 2.22379e-16
0.0175905 5.81778e-16
0.0175995 8.59204e-18
0.0176085 1.37888e-16
0.0176175 5.85641e-17
0.0176265 1.10279e-15
0.0176355 6.19649e-16
0.0176445 1.78926e-16
0.0176535 1.43667e-15
0.0176625 7.0235e-16
0.0176715 2.25224e-17
0.0176805 1.70016e-18
0.0176895 1.26446e-17
0.0176985 8.39404e-17
0.0177075 9.66349e-16
0.0177165 1.06817e-15
0.0177255 4.69865e-17
0.0177345 2.62648e-16
0.0177435 1.59782e-16
0.0177525 5.41821e-18
0.0177615 4.10712e-17
0.0177705 5.57424e-16
0.0177795 4.33946e-16
0.0177885 5.84883e-17
0.0177975 8.55277e-16
0.0178065 4.08569e-16
0.0178155 6.6964e-18
0.0178245 6.89254e-17
0.0178335 8.68187e-18
0.0178425 6.72369e-17
0.0178515 5.6998e-16
0.0178605 5.16581e-16
0.0178695 1.40227e-17
0.0178785 6.24197e-16
0.0178875 2.22604e-16
0.0178965 6.03065e-17
0.0179055 4.73001e-17
0.0179145 1.90501e-16
0.0179235 2.36873e-16
0.0179325 2.0996e-16
0.0179415 1.38032e-15
0.0179505 3.40402e-16
0.0179595 3.8295e-16
0.0179685 7.95822e-16
0.0179775 6.35432e-18
0.0179865 2.45713e-16
0.0179955 1.65816e-18
0.0180045 5.14701e-16
0.0180135 1.39461e-16
0.0180225 4.1658e-16
0.0180315 1.02355e-15
0.0180405 1.8388e-16
0.0180495 1.41834e-17
0.0180585 1.37146e-17
0.0180675 1.0166e-16
0.0180765 7.28571e-17
0.0180855 1.02499e-15
0.0180945 6.28067e-16
0.0181035 5.89418e-17
0.0181125 5.26505e-16
0.0181215 8.62254e-18
0.0181305 3.32946e-16
0.0181395 4.01152e-17
0.0181485 4.1058e-16
0.0181575 3.33385e-16
0.0181665 2.01953e-16
0.0181755 1.14452e-15
0.0181845 2.54666e-16
0.0181935 1.41136e-16
0.0182025 1.82581e-16
0.0182115 8.24611e-18
0.0182205 8.62914e-18
0.0182295 2.84914e-16
0.0182385 5.00334e-16
0.0182475 5.99729e-20
0.0182565 5.00743e-16
0.0182655 3.59661e-16
0.0182745 1.62421e-17
0.0182835 1.43181e-17
0.0182925 2.09506e-16
0.0183015 5.38674e-17
0.0183105 4.40547e-16
0.0183195 1.14789e-15
0.0183285 1.0594e-16
0.0183375 4.60635e-16
0.0183465 5.19907e-16
0.0183555 5.89121e-18
0.0183645 3.24297e-17
0.0183735 1.94719e-16
0.0183825 5.38267e-16
0.0183915 4.49319e-19
0.0184005 7.8455e-16
0.0184095 5.36884e-16
0.0184185 2.84555e-17
