-0.00512 1.49003e-11
-0.005115 5.91754e-12
-0.00511 2.23859e-13
-0.005105 1.12263e-12
-0.0051 2.23874e-12
-0.005095 6.80764e-13
-0.00509 1.00821e-13
-0.005085 1.04172e-12
-0.00508 4.05073e-13
-0.005075 6.77752e-13
-0.00507 7.0317e-12
-0.005065 1.45832e-11
-0.00506 1.25102e-11
-0.005055 2.98359e-12
-0.00505 7.82844e-13
-0.005045 9.66917e-12
-0.00504 1.52109e-11
-0.005035 8.45446e-12
-0.00503 4.66471e-13
-0.005025 2.54014e-12
-0.00502 7.41565e-12
-0.005015 4.49668e-12
-0.00501 1.83935e-14
-0.005005 4.48773e-12
-0.005 1.11845e-11
-0.004995 7.57549e-12
-0.00499 2.47397e-13
-0.004985 5.6293e-12
-0.00498 1.96854e-11
-0.004975 2.14224e-11
-0.00497 7.77379e-12
-0.004965 5.90608e-14
-0.00496 9.26343e-12
-0.004955 1.87391e-11
-0.00495 1.2924e-11
-0.004945 1.84532e-12
-0.00494 1.27745e-12
-0.004935 6.471e-12
-0.00493 4.68945e-12
-0.004925 6.04911e-14
-0.00492 4.61564e-12
-0.004915 1.37373e-11
-0.00491 1.26906e-11
-0.004905 3.02057e-12
-0.0049 7.8827e-13
-0.004895 9.33509e-12
-0.00489 1.43404e-11
-0.004885 8.30449e-12
-0.00488 9.70414e-13
-0.004875 6.34323e-13
-0.00487 2.28622e-12
-0.004865 7.82954e-13
-0.00486 3.11067e-13
-0.004855 3.24792e-12
-0.00485 3.76569e-12
-0.004845 4.98568e-13
-0.00484 1.8076e-12
-0.004835 9.66199e-12
-0.00483 1.24764e-11
-0.004825 4.84759e-12
-0.00482 1.55165e-13
-0.004815 9.46631e-12
-0.00481 2.08959e-11
-0.004805 1.73319e-11
-0.0048 4.32646e-12
-0.004795 3.77727e-13
-0.00479 6.56226e-12
-0.004785 7.87724e-12
-0.00478 1.6625e-12
-0.004775 1.27482e-12
-0.00477 9.73659e-12
-0.004765 1.28593e-11
-0.00476 4.98888e-12
-0.004755 7.24071e-14
-0.00475 6.98008e-12
-0.004745 1.3399e-11
-0.00474 7.80357e-12
-0.004735 2.30656e-13
-0.00473 4.39777e-12
-0.004725 1.31315e-11
-0.00472 1.10629e-11
-0.004715 1.84983e-12
-0.00471 1.64639e-12
-0.004705 1.08797e-11
-0.0047 1.39764e-11
-0.004695 6.17955e-12
-0.00469 8.1724e-14
-0.004685 2.78012e-12
-0.00468 5.58358e-12
-0.004675 2.23074e-12
-0.00467 1.68043e-13
-0.004665 5.22545e-12
-0.00466 9.73635e-12
-0.004655 6.16348e-12
-0.00465 5.4571e-13
-0.004645 1.35791e-12
-0.00464 4.93808e-12
-0.004635 3.62373e-12
-0.00463 1.86349e-13
-0.004625 1.84079e-12
-0.00462 6.11402e-12
-0.004615 5.33699e-12
-0.00461 9.33997e-13
-0.004605 6.7741e-13
-0.0046 4.3775e-12
-0.004595 4.71813e-12
-0.00459 1.10595e-12
-0.004585 3.85072e-13
-0.00458 3.57729e-12
-0.004575 4.08747e-12
-0.00457 7.88323e-13
-0.004565 9.00729e-13
-0.00456 6.4504e-12
-0.004555 9.29876e-12
-0.00455 4.81914e-12
-0.004545 1.50361e-13
-0.00454 2.24128e-12
-0.004535 6.69321e-12
-0.00453 6.1081e-12
-0.004525 1.96399e-12
-0.00452 1.74348e-14
-0.004515 2.61588e-13
-0.00451 7.75818e-15
-0.004505 1.4633e-12
-0.0045 6.99853e-12
-0.004495 1.12377e-11
-0.00449 7.81135e-12
-0.004485 1.14369e-12
-0.00448 1.2879e-12
-0.004475 8.33854e-12
-0.00447 1.22093e-11
-0.004465 8.08111e-12
-0.00446 2.0746e-12
-0.004455 1.53526e-14
-0.00445 1.6223e-13
-0.004445 5.36265e-15
-0.00444 1.33379e-12
-0.004435 4.38226e-12
-0.00443 4.84531e-12
-0.004425 1.56402e-12
-0.00442 1.50446e-13
-0.004415 3.73469e-12
-0.00441 6.77641e-12
-0.004405 4.14579e-12
-0.0044 2.295e-13
-0.004395 1.79175e-12
-0.00439 6.69555e-12
-0.004385 7.65872e-12
-0.00438 3.80707e-12
-0.004375 5.15726e-13
-0.00437 3.44854e-14
-0.004365 7.07719e-14
-0.00436 1.93205e-13
-0.004355 1.9291e-12
-0.00435 3.4102e-12
-0.004345 1.71133e-12
-0.00434 3.67542e-14
-0.004335 4.24345e-12
-0.00433 1.18175e-11
-0.004325 1.32861e-11
-0.00432 6.50116e-12
-0.004315 4.30485e-13
-0.00431 1.29365e-12
-0.004305 3.95488e-12
-0.0043 2.37076e-12
-0.004295 9.23329e-15
-0.00429 2.3528e-12
-0.004285 6.03716e-12
-0.00428 4.64067e-12
-0.004275 5.49544e-13
-0.00427 1.20754e-12
-0.004265 6.12791e-12
-0.00426 7.55632e-12
-0.004255 3.42996e-12
-0.00425 9.57813e-14
-0.004245 1.10116e-12
-0.00424 2.33241e-12
-0.004235 8.42969e-13
-0.00423 1.58494e-13
-0.004225 2.77988e-12
-0.00422 4.67384e-12
-0.004215 2.42924e-12
-0.00421 9.50559e-15
-0.004205 2.41299e-12
-0.0042 7.01471e-12
-0.004195 7.5238e-12
-0.00419 3.61083e-12
-0.004185 3.97476e-13
-0.00418 1.58738e-13
-0.004175 5.0901e-13
-0.00417 7.27768e-14
-0.004165 3.11644e-13
-0.00416 1.45602e-12
-0.004155 1.54223e-12
-0.00415 3.52137e-13
-0.004145 1.78056e-13
-0.00414 1.66336e-12
-0.004135 2.52317e-12
-0.00413 1.48572e-12
-0.004125 1.99044e-13
-0.00412 6.94318e-14
-0.004115 2.64297e-13
-0.00411 4.32783e-14
-0.004105 1.60513e-13
-0.0041 7.29987e-13
-0.004095 5.7831e-13
-0.00409 8.27395e-16
-0.004085 1.12044e-12
-0.00408 3.90078e-12
-0.004075 4.97463e-12
-0.00407 2.65915e-12
-0.004065 1.53856e-13
-0.00406 9.20046e-13
-0.004055 3.42437e-12
-0.00405 3.78928e-12
-0.004045 1.71434e-12
-0.00404 1.21504e-13
-0.004035 1.63965e-13
-0.00403 3.36814e-13
-0.004025 2.37764e-14
-0.00402 3.08998e-13
-0.004015 1.16419e-12
-0.00401 1.11768e-12
-0.004005 1.96531e-13
-0.004 2.25471e-13
-0.003995 1.52135e-12
-0.00399 2.09054e-12
-0.003985 1.02302e-12
-0.00398 2.79816e-14
-0.003975 4.12333e-13
-0.00397 1.00809e-12
-0.003965 5.69785e-13
-0.00396 3.42082e-15
-0.003955 4.80214e-13
-0.00395 1.20739e-12
-0.003945 9.34632e-13
-0.00394 1.67486e-13
-0.003935 5.36914e-14
-0.00393 3.43436e-13
-0.003925 2.2088e-13
-0.00392 5.32678e-17
-0.003915 2.54324e-13
-0.00391 4.12412e-13
-0.003905 5.10884e-14
-0.0039 3.97977e-13
-0.003895 2.39999e-12
-0.00389 4.30573e-12
-0.003885 3.67036e-12
-0.00388 1.20263e-12
-0.003875 2.36427e-15
-0.00387 1.09501e-12
-0.003865 2.32188e-12
-0.00386 1.93253e-12
-0.003855 7.51214e-13
-0.00385 1.21419e-13
-0.003845 3.09677e-14
-0.00384 1.95168e-13
-0.003835 8.78436e-13
-0.00383 1.60515e-12
-0.003825 1.14827e-12
-0.00382 5.64641e-14
-0.003815 1.03974e-12
-0.00381 5.04014e-12
-0.003805 8.76267e-12
-0.0038 8.37847e-12
-0.003795 4.45848e-12
-0.00379 9.3385e-13
-0.003785 6.19564e-15
-0.00378 4.64095e-13
-0.003775 5.99213e-13
-0.00377 3.17306e-13
-0.003765 1.48344e-13
-0.00376 2.49823e-13
-0.003755 8.79719e-13
-0.00375 2.1965e-12
-0.003745 3.20765e-12
-0.00374 2.55029e-12
-0.003735 7.51095e-13
-0.00373 2.63724e-14
-0.003725 1.18985e-12
-0.00372 2.41606e-12
-0.003715 1.97504e-12
-0.00371 6.1369e-13
-0.003705 1.65163e-15
-0.0037 1.92562e-13
-0.003695 1.81606e-13
-0.00369 2.21293e-15
-0.003685 5.21356e-13
-0.00368 1.58295e-12
-0.003675 1.97945e-12
-0.00367 1.26983e-12
-0.003665 3.37307e-13
-0.00366 7.15066e-16
-0.003655 1.10544e-13
-0.00365 2.0527e-13
-0.003645 2.09555e-13
-0.00364 2.94707e-13
-0.003635 7.1511e-13
-0.00363 1.82019e-12
-0.003625 3.53234e-12
-0.00362 4.82788e-12
-0.003615 4.54418e-12
-0.00361 2.82528e-12
-0.003605 1.04221e-12
-0.0036 1.74612e-13
-0.003595 7.9583e-15
-0.00359 8.11284e-15
-0.003585 8.32173e-14
-0.00358 1.9429e-13
-0.003575 1.08478e-13
-0.00357 1.27087e-14
-0.003565 5.72929e-13
-0.00356 1.79541e-12
-0.003555 2.55006e-12
-0.00355 1.95659e-12
-0.003545 6.75368e-13
-0.00354 1.29072e-14
-0.003535 1.81122e-13
-0.00353 3.42041e-13
-0.003525 1.13942e-13
-0.00352 2.45418e-14
-0.003515 4.0729e-13
-0.00351 7.65031e-13
-0.003505 5.83525e-13
-0.0035 1.33169e-13
-0.003495 2.27366e-14
-0.00349 3.53929e-13
-0.003485 7.24387e-13
-0.00348 8.33474e-13
-0.003475 7.37119e-13
-0.00347 6.14967e-13
-0.003465 5.4607e-13
-0.00346 4.86289e-13
-0.003455 3.3823e-13
-0.00345 1.00198e-13
-0.003445 1.36918e-14
-0.00344 4.3713e-13
-0.003435 1.4441e-12
-0.00343 2.6131e-12
-0.003425 3.32567e-12
-0.00342 3.25687e-12
-0.003415 2.54652e-12
-0.00341 1.58366e-12
-0.003405 7.247e-13
-0.0034 1.75967e-13
-0.003395 7.09245e-18
-0.00339 1.23882e-13
-0.003385 3.45131e-13
-0.00338 4.30337e-13
-0.003375 3.00051e-13
-0.00337 9.69831e-14
-0.003365 2.14671e-15
-0.00336 1.85973e-14
-0.003355 2.77646e-14
-0.00335 2.80717e-15
-0.003345 1.44982e-14
-0.00334 5.76589e-14
-0.003335 5.29925e-14
-0.00333 1.01299e-14
-0.003325 2.94038e-15
-0.00332 1.26699e-14
-0.003315 7.3711e-17
-0.00331 4.2628e-14
-0.003305 1.33917e-13
-0.0033 7.05231e-14
-0.003295 4.82563e-14
-0.00329 1.0766e-12
-0.003285 3.76884e-12
-0.00328 6.61491e-12
-0.003275 6.82577e-12
-0.00327 3.77308e-12
-0.003265 5.06083e-13
-0.00326 4.9967e-13
-0.003255 3.49151e-12
-0.00325 5.99758e-12
-0.003245 5.6491e-12
-0.00324 3.41348e-12
-0.003235 1.46945e-12
-0.00323 6.36253e-13
-0.003225 5.65416e-13
-0.00322 9.82478e-13
-0.003215 1.61558e-12
-0.00321 1.79316e-12
-0.003205 1.17229e-12
-0.0032 3.49694e-13
-0.003195 1.00813e-14
-0.00319 2.22407e-14
-0.003185 2.90626e-15
-0.00318 8.22182e-14
-0.003175 3.88309e-13
-0.00317 4.8519e-13
-0.003165 1.50652e-13
-0.00316 4.37288e-14
-0.003155 7.04469e-13
-0.00315 1.50836e-12
-0.003145 1.53996e-12
-0.00314 9.26577e-13
-0.003135 4.20533e-13
-0.00313 3.24559e-13
-0.003125 7.02382e-13
-0.00312 1.7276e-12
-0.003115 2.75727e-12
-0.00311 2.3047e-12
-0.003105 5.20895e-13
-0.0031 3.27817e-13
-0.003095 3.6955e-12
-0.00309 7.80397e-12
-0.003085 7.95286e-12
-0.00308 3.97992e-12
-0.003075 4.72485e-13
-0.00307 2.82089e-13
-0.003065 1.35994e-12
-0.00306 1.08818e-12
-0.003055 1.47352e-13
-0.00305 1.05639e-13
-0.003045 3.64332e-13
-0.00304 6.06049e-14
-0.003035 3.152e-13
-0.00303 1.79871e-12
-0.003025 2.52697e-12
-0.00302 1.14339e-12
-0.003015 1.30957e-15
-0.00301 1.4239e-12
-0.003005 3.19528e-12
-0.003 2.10622e-12
-0.002995 7.56343e-14
-0.00299 1.47846e-12
-0.002985 5.36063e-12
-0.00298 6.21521e-12
-0.002975 2.7847e-12
-0.00297 6.55734e-14
-0.002965 1.10163e-12
-0.00296 2.65958e-12
-0.002955 1.60495e-12
-0.00295 5.84168e-14
-0.002945 6.66928e-13
-0.00294 1.64006e-12
-0.002935 7.51925e-13
-0.00293 4.21943e-14
-0.002925 1.77755e-12
-0.00292 3.44919e-12
-0.002915 2.04148e-12
-0.00291 4.56136e-14
-0.002905 1.39899e-12
-0.0029 4.12322e-12
-0.002895 3.48834e-12
-0.00289 5.7149e-13
-0.002885 5.47205e-13
-0.00288 3.3959e-12
-0.002875 3.89903e-12
-0.00287 1.13093e-12
-0.002865 1.72066e-13
-0.00286 2.85472e-12
-0.002855 4.44435e-12
-0.00285 2.20933e-12
-0.002845 4.26684e-14
-0.00284 9.86883e-13
-0.002835 2.03949e-12
-0.00283 7.20061e-13
-0.002825 1.67629e-13
-0.00282 2.55861e-12
-0.002815 3.89463e-12
-0.00281 1.45019e-12
-0.002805 1.66411e-13
-0.0028 4.27691e-12
-0.002795 8.38922e-12
-0.00279 5.77059e-12
-0.002785 5.88229e-13
-0.00278 1.49264e-12
-0.002775 6.56121e-12
-0.00277 6.5131e-12
-0.002765 1.36277e-12
-0.00276 8.41694e-13
-0.002755 7.09504e-12
-0.00275 1.0236e-11
-0.002745 5.13687e-12
-0.00274 1.22108e-13
-0.002735 2.50212e-12
-0.00273 6.65665e-12
-0.002725 4.89101e-12
-0.00272 5.94512e-13
-0.002715 7.93996e-13
-0.00271 3.36304e-12
-0.002705 2.35051e-12
-0.0027 2.50301e-14
-0.002695 2.33805e-12
-0.00269 6.74002e-12
-0.002685 6.01584e-12
-0.00268 1.38022e-12
-0.002675 2.87856e-13
-0.00267 3.03009e-12
-0.002665 3.15794e-12
-0.00266 4.02074e-13
-0.002655 1.07252e-12
-0.00265 5.13973e-12
-0.002645 5.34512e-12
-0.00264 1.11596e-12
-0.002635 8.16061e-13
-0.00263 6.62994e-12
-0.002625 9.65046e-12
-0.00262 5.0925e-12
-0.002615 2.87333e-13
-0.00261 1.12502e-12
-0.002605 2.54322e-12
-0.0026 4.9624e-13
-0.002595 1.39091e-12
-0.00259 9.28509e-12
-0.002585 1.48039e-11
-0.00258 9.37056e-12
-0.002575 9.97898e-13
-0.00257 1.80023e-12
-0.002565 7.82212e-12
-0.00256 7.05411e-12
-0.002555 1.10392e-12
-0.00255 1.2194e-12
-0.002545 6.72104e-12
-0.00254 6.49322e-12
-0.002535 8.63651e-13
-0.00253 2.09171e-12
-0.002525 1.10833e-11
-0.00252 1.37406e-11
-0.002515 5.55007e-12
-0.00251 5.14461e-16
-0.002505 4.68408e-12
-0.0025 8.48545e-12
-0.002495 3.40798e-12
-0.00249 2.34807e-13
-0.002485 8.01637e-12
-0.00248 1.52745e-11
-0.002475 9.48656e-12
-0.00247 5.08844e-13
-0.002465 4.00761e-12
-0.00246 1.34903e-11
-0.002455 1.18304e-11
-0.00245 2.05411e-12
-0.002445 1.65931e-12
-0.00244 1.08799e-11
-0.002435 1.26742e-11
-0.00243 3.90033e-12
-0.002425 3.20294e-13
-0.00242 7.09389e-12
-0.002415 1.00267e-11
-0.00241 3.23108e-12
-0.002405 4.77342e-13
-0.0024 8.50436e-12
-0.002395 1.30455e-11
-0.00239 5.37859e-12
-0.002385 1.21252e-13
-0.00238 9.09187e-12
-0.002375 1.82312e-11
-0.00237 1.16621e-11
-0.002365 7.16691e-13
-0.00236 4.62298e-12
-0.002355 1.66299e-11
-0.00235 1.61532e-11
-0.002345 4.47358e-12
-0.00234 2.72119e-13
-0.002335 5.84666e-12
-0.00233 6.46428e-12
-0.002325 7.48317e-13
-0.00232 2.66001e-12
-0.002315 1.21997e-11
-0.00231 1.29931e-11
-0.002305 3.2948e-12
-0.0023 9.20056e-13
-0.002295 1.03768e-11
-0.00229 1.37715e-11
-0.002285 4.45434e-12
-0.00228 5.65222e-13
-0.002275 1.10408e-11
-0.00227 1.72478e-11
-0.002265 7.24149e-12
-0.00226 1.53771e-13
-0.002255 1.248e-11
-0.00225 2.59672e-11
-0.002245 1.80868e-11
-0.00224 2.08011e-12
-0.002235 3.40017e-12
-0.00223 1.47825e-11
-0.002225 1.20665e-11
-0.00222 8.36145e-13
-0.002215 6.04142e-12
-0.00221 2.30443e-11
-0.002205 2.29648e-11
-0.0022 5.57589e-12
-0.002195 1.55372e-12
-0.00219 1.68826e-11
-0.002185 2.15771e-11
-0.00218 6.1207e-12
-0.002175 1.82877e-12
-0.00217 2.37585e-11
-0.002165 3.89861e-11
-0.00216 2.21148e-11
-0.002155 9.95588e-13
-0.00215 8.94684e-12
-0.002145 2.73271e-11
-0.00214 2.10241e-11
-0.002135 2.08628e-12
-0.00213 6.25813e-12
-0.002125 2.63428e-11
-0.00212 2.5148e-11
-0.002115 4.64945e-12
-0.00211 3.99076e-12
-0.002105 2.83605e-11
-0.0021 3.7766e-11
-0.002095 1.6781e-11
-0.00209 1.00846e-13
-0.002085 1.00319e-11
-0.00208 2.05138e-11
-0.002075 9.6335e-12
-0.00207 7.04301e-14
-0.002065 1.36201e-11
-0.00206 2.76663e-11
-0.002055 1.65391e-11
-0.00205 4.86181e-13
-0.002045 9.51927e-12
-0.00204 2.79467e-11
-0.002035 2.25643e-11
-0.00203 3.15983e-12
-0.002025 4.14929e-12
-0.00202 2.17394e-11
-0.002015 2.22717e-11
-0.00201 4.89499e-12
-0.002005 2.19382e-12
-0.002 1.90459e-11
-0.001995 2.40024e-11
-0.00199 8.03457e-12
-0.001985 4.51286e-13
-0.00198 1.36413e-11
-0.001975 2.1098e-11
-0.00197 8.523e-12
-0.001965 1.22019e-13
-0.00196 1.11828e-11
-0.001955 1.88229e-11
-0.00195 7.33755e-12
-0.001945 5.01138e-13
-0.00194 1.64709e-11
-0.001935 3.00991e-11
-0.00193 1.73085e-11
-0.001925 5.67877e-13
-0.00192 8.41527e-12
-0.001915 2.3039e-11
-0.00191 1.50008e-11
-0.001905 3.53029e-13
-0.0019 1.05337e-11
-0.001895 3.01867e-11
-0.00189 2.32123e-11
-0.001885 2.13006e-12
-0.00188 8.10548e-12
-0.001875 3.34101e-11
-0.00187 3.22699e-11
-0.001865 6.12754e-12
-0.00186 4.98683e-12
-0.001855 3.57538e-11
-0.00185 4.53246e-11
-0.001845 1.59068e-11
-0.00184 8.64219e-13
-0.001835 3.07182e-11
-0.00183 5.64157e-11
-0.001825 3.45159e-11
-0.00182 2.46225e-12
-0.001815 9.40001e-12
-0.00181 3.05713e-11
-0.001805 2.02558e-11
-0.0018 3.15515e-13
-0.001795 1.68228e-11
-0.00179 4.70942e-11
-0.001785 3.6861e-11
-0.00178 3.86563e-12
-0.001775 1.16848e-11
-0.00177 5.34211e-11
-0.001765 5.87553e-11
-0.00176 1.83047e-11
-0.001755 1.19353e-12
-0.00175 3.17414e-11
-0.001745 4.8484e-11
-0.00174 1.93355e-11
-0.001735 4.51032e-13
-0.00173 3.03232e-11
-0.001725 5.59482e-11
-0.00172 3.00119e-11
-0.001715 2.62201e-13
-0.00171 2.31219e-11
-0.001705 5.86036e-11
-0.0017 4.21556e-11
-0.001695 3.64722e-12
-0.00169 1.35168e-11
-0.001685 5.3225e-11
-0.00168 4.90329e-11
-0.001675 8.52785e-12
-0.00167 7.91072e-12
-0.001665 5.14159e-11
-0.00166 6.15482e-11
-0.001655 2.0029e-11
-0.00165 1.34127e-12
-0.001645 3.69214e-11
-0.00164 5.90788e-11
-0.001635 2.66275e-11
-0.00163 1.64065e-14
-0.001625 2.85422e-11
-0.00162 5.93732e-11
-0.001615 3.58142e-11
-0.00161 1.31693e-12
-0.001605 1.73631e-11
-0.0016 5.0122e-11
-0.001595 3.6369e-11
-0.00159 2.64418e-12
-0.001585 1.36031e-11
-0.00158 4.8388e-11
-0.001575 4.00318e-11
-0.00157 4.33658e-12
-0.001565 1.21891e-11
-0.00156 5.36792e-11
-0.001555 5.2463e-11
-0.00155 9.97873e-12
-0.001545 7.95408e-12
-0.00154 5.6247e-11
-0.001535 6.89979e-11
-0.00153 2.20513e-11
-0.001525 2.27911e-12
-0.00152 4.97176e-11
-0.001515 8.01271e-11
-0.00151 3.73615e-11
-0.001505 4.65598e-15
-0.0015 4.09993e-11
-0.001495 9.18298e-11
-0.00149 6.28349e-11
-0.001485 5.21826e-12
-0.00148 1.93796e-11
-0.001475 7.47844e-11
-0.00147 6.84039e-11
-0.001465 1.26133e-11
-0.00146 8.50534e-12
-0.001455 5.7938e-11
-0.00145 6.35148e-11
-0.001445 1.41435e-11
-0.00144 7.70754e-12
-0.001435 6.60363e-11
-0.00143 8.79981e-11
-0.001425 3.37207e-11
-0.00142 5.48e-13
-0.001415 4.61454e-11
-0.00141 8.31175e-11
-0.001405 4.15395e-11
-0.0014 2.90767e-14
-0.001395 4.07406e-11
-0.00139 9.45981e-11
-0.001385 6.51314e-11
-0.00138 5.24659e-12
-0.001375 2.05392e-11
-0.00137 7.65802e-11
-0.001365 6.57281e-11
-0.00136 8.68201e-12
-0.001355 1.56318e-11
-0.00135 7.85312e-11
-0.001345 8.26051e-11
-0.00134 1.9678e-11
-0.001335 7.20743e-12
-0.00133 7.27419e-11
-0.001325 1.00323e-10
-0.00132 4.06639e-11
-0.001315 1.88511e-13
-0.00131 4.60162e-11
-0.001305 8.66226e-11
-0.0013 4.50984e-11
-0.001295 2.35322e-13
-0.00129 3.52943e-11
-0.001285 8.12849e-11
-0.00128 4.92275e-11
-0.001275 9.80979e-13
-0.00127 3.35308e-11
-0.001265 9.20315e-11
-0.00126 6.80597e-11
-0.001255 5.56086e-12
-0.00125 2.50357e-11
-0.001245 9.82024e-11
-0.00124 9.40697e-11
-0.001235 1.96156e-11
-0.00123 9.72841e-12
-0.001225 7.92996e-11
-0.00122 9.58782e-11
-0.001215 2.75169e-11
-0.00121 5.49334e-12
-0.001205 7.94726e-11
-0.0012 1.18779e-10
-0.001195 5.10719e-11
-0.00119 1.76828e-13
-0.001185 6.08639e-11
-0.00118 1.21723e-10
-0.001175 6.90312e-11
-0.00117 9.41551e-13
-0.001165 5.14737e-11
-0.00116 1.40587e-10
-0.001155 1.12592e-10
-0.00115 1.67528e-11
-0.001145 1.81057e-11
-0.00114 1.00573e-10
-0.001135 1.04073e-10
-0.00113 2.24612e-11
-0.001125 1.14465e-11
-0.00112 9.5485e-11
-0.001115 1.20231e-10
-0.00111 3.96046e-11
-0.001105 3.09538e-12
-0.0011 7.89386e-11
-0.001095 1.26935e-10
-0.00109 5.83563e-11
-0.001085 3.954e-16
-0.00108 5.69109e-11
-0.001075 1.17077e-10
-0.00107 6.42944e-11
-0.001065 3.62248e-13
-0.00106 5.52709e-11
-0.001055 1.36983e-10
-0.00105 9.6107e-11
-0.001045 6.98313e-12
-0.00104 3.59913e-11
-0.001035 1.31596e-10
-0.00103 1.15483e-10
-0.001025 1.65752e-11
-0.00102 2.61708e-11
-0.001015 1.43629e-10
-0.00101 1.65783e-10
-0.001005 5.27645e-11
-0.001 3.74461e-12
-0.000995 9.78524e-11
-0.00099 1.5432e-10
-0.000985 6.75092e-11
-0.00098 2.08291e-13
-0.000975 8.00688e-11
-0.00097 1.61559e-10
-0.000965 9.46093e-11
-0.00096 2.54122e-12
-0.000955 5.36682e-11
-0.00095 1.49932e-10
-0.000945 1.10684e-10
-0.00094 9.53351e-12
-0.000935 3.64248e-11
-0.00093 1.41616e-10
-0.000925 1.27695e-10
-0.00092 2.03983e-11
-0.000915 2.30972e-11
-0.00091 1.34596e-10
-0.000905 1.46756e-10
-0.0009 3.53709e-11
-0.000895 1.35381e-11
-0.00089 1.35043e-10
-0.000885 1.83739e-10
-0.00088 6.92339e-11
-0.000875 2.01849e-12
-0.00087 1.11702e-10
-0.000865 2.0426e-10
-0.00086 1.12676e-10
-0.000855 2.24322e-12
-0.00085 6.70482e-11
-0.000845 1.75678e-10
-0.00084 1.20496e-10
-0.000835 6.64336e-12
-0.00083 5.49049e-11
-0.000825 1.83739e-10
-0.00082 1.55106e-10
-0.000815 2.10152e-11
-0.00081 3.49697e-11
-0.000805 1.80263e-10
-0.0008 1.9253e-10
-0.000795 4.80089e-11
-0.00079 1.43075e-11
-0.000785 1.58114e-10
-0.00078 2.17358e-10
-0.000775 8.28447e-11
-0.00077 1.8197e-12
-0.000765 1.20936e-10
-0.00076 2.13541e-10
-0.000755 1.03432e-10
-0.00075 8.10962e-16
-0.000745 1.11091e-10
-0.00074 2.4566e-10
-0.000735 1.57478e-10
-0.00073 7.1891e-12
-0.000725 7.70203e-11
-0.00072 2.47985e-10
-0.000715 2.0958e-10
-0.00071 3.09355e-11
-0.000705 3.99466e-11
-0.0007 2.21222e-10
-0.000695 2.41194e-10
-0.00069 6.25231e-11
-0.000685 1.56647e-11
-0.00068 1.88453e-10
-0.000675 2.60413e-10
-0.00067 9.63623e-11
-0.000665 3.78622e-12
-0.00066 1.66995e-10
-0.000655 2.97676e-10
-0.00065 1.58109e-10
-0.000645 1.69563e-12
-0.00064 1.12958e-10
-0.000635 2.86109e-10
-0.00063 2.03075e-10
-0.000625 1.68161e-11
-0.00062 6.50394e-11
-0.000615 2.46153e-10
-0.00061 2.14437e-10
-0.000605 2.97675e-11
-0.0006 4.82635e-11
-0.000595 2.51712e-10
-0.00059 2.69663e-10
-0.000585 6.72982e-11
-0.00058 2.0004e-11
-0.000575 2.20335e-10
-0.00057 2.99786e-10
-0.000565 1.09758e-10
-0.00056 4.383e-12
-0.000555 1.87949e-10
-0.00055 3.28826e-10
-0.000545 1.67083e-10
-0.00054 6.13833e-13
-0.000535 1.40832e-10
-0.00053 3.34353e-10
-0.000525 2.25755e-10
-0.00052 1.44572e-11
-0.000515 8.83159e-11
-0.00051 3.06482e-10
-0.000505 2.61204e-10
-0.0005 3.6732e-11
-0.000495 5.46317e-11
-0.00049 2.87958e-10
-0.000485 3.06734e-10
-0.00048 7.61234e-11
-0.000475 2.16245e-11
-0.00047 2.35838e-10
-0.000465 3.08053e-10
-0.00046 9.97315e-11
-0.000455 1.06518e-11
-0.00045 2.23899e-10
-0.000445 3.46585e-10
-0.00044 1.44531e-10
-0.000435 2.13584e-12
-0.00043 2.14572e-10
-0.000425 4.14931e-10
-0.00042 2.36363e-10
-0.000415 4.69467e-12
-0.00041 1.49754e-10
-0.000405 4.01239e-10
-0.0004 2.83257e-10
-0.000395 1.69704e-11
-0.00039 1.30647e-10
-0.000385 4.60375e-10
-0.00038 4.15421e-10
-0.000375 7.18349e-11
-0.00037 6.68253e-11
-0.000365 4.33345e-10
-0.00036 5.14224e-10
-0.000355 1.59108e-10
-0.00035 1.74741e-11
-0.000345 3.56093e-10
-0.00034 5.59558e-10
-0.000335 2.54443e-10
-0.00033 2.68401e-14
-0.000325 2.58305e-10
-0.00032 5.38231e-10
-0.000315 3.11248e-10
-0.00031 5.42816e-12
-0.000305 2.09153e-10
-0.0003 5.53102e-10
-0.000295 3.86858e-10
-0.00029 2.18615e-11
-0.000285 1.84467e-10
-0.00028 6.37528e-10
-0.000275 5.66215e-10
-0.00027 9.26573e-11
-0.000265 9.94141e-11
-0.00026 6.05037e-10
-0.000255 6.90877e-10
-0.00025 1.91527e-10
-0.000245 4.04134e-11
-0.00024 5.57689e-10
-0.000235 8.17644e-10
-0.00023 3.36994e-10
-0.000225 3.63893e-12
-0.00022 4.62287e-10
-0.000215 8.90945e-10
-0.00021 4.9277e-10
-0.000205 5.3255e-12
-0.0002 3.75886e-10
-0.000195 9.76288e-10
-0.00019 7.11061e-10
-0.000185 6.03618e-11
-0.00018 2.41435e-10
-0.000175 9.44293e-10
-0.00017 8.62458e-10
-0.000165 1.38956e-10
-0.00016 1.64803e-10
-0.000155 9.7445e-10
-0.00015 1.09083e-09
-0.000145 2.76691e-10
-0.00014 9.45937e-11
-0.000135 1.02728e-09
-0.00013 1.44147e-09
-0.000125 5.52716e-10
-0.00012 1.90957e-11
-0.000115 9.68172e-10
-0.00011 1.77398e-09
-0.000105 9.38438e-10
-0.0001 3.25143e-12
-9.5e-05 8.73057e-10
-9e-05 2.15659e-09
-8.5e-05 1.50614e-09
-8e-05 8.70662e-11
-7.5e-05 7.45138e-10
-7e-05 2.65882e-09
-6.5e-05 2.43697e-09
-6e-05 3.99057e-10
-5.5e-05 5.10888e-10
-5e-05 3.14024e-09
-4.5e-05 3.71466e-09
-4e-05 9.93782e-10
-3.5e-05 4.02185e-10
-3e-05 4.63561e-09
-2.5e-05 7.22588e-09
-2e-05 3.01191e-09
-1.5e-05 3.17693e-10
-1e-05 1.18177e-08
-5e-06 3.36035e-08
-1.24587e-16 4.49627e-08
5e-06 3.36035e-08
1e-05 1.18177e-08
1.5e-05 3.17693e-10
2e-05 3.01191e-09
2.5e-05 7.22588e-09
3e-05 4.63561e-09
3.5e-05 4.02185e-10
4e-05 9.93782e-10
4.5e-05 3.71466e-09
5e-05 3.14024e-09
5.5e-05 5.10888e-10
6e-05 3.99057e-10
6.5e-05 2.43697e-09
7e-05 2.65882e-09
7.5e-05 7.45138e-10
8e-05 8.70662e-11
8.5e-05 1.50614e-09
9e-05 2.15659e-09
9.5e-05 8.73057e-10
0.0001 3.25143e-12
0.000105 9.38438e-10
0.00011 1.77398e-09
0.000115 9.68172e-10
0.00012 1.90957e-11
0.000125 5.52716e-10
0.00013 1.44147e-09
0.000135 1.02728e-09
0.00014 9.45937e-11
0.000145 2.76691e-10
0.00015 1.09083e-09
0.000155 9.7445e-10
0.00016 1.64803e-10
0.000165 1.38956e-10
0.00017 8.62458e-10
0.000175 9.44293e-10
0.00018 2.41435e-10
0.000185 6.03618e-11
0.00019 7.11061e-10
0.000195 9.76288e-10
0.0002 3.75886e-10
0.000205 5.3255e-12
0.00021 4.9277e-10
0.000215 8.90945e-10
0.00022 4.62287e-10
0.000225 3.63893e-12
0.00023 3.36994e-10
0.000235 8.17644e-10
0.00024 5.57689e-10
0.000245 4.04134e-11
0.00025 1.91527e-10
0.000255 6.90877e-10
0.00026 6.05037e-10
0.000265 9.94141e-11
0.00027 9.26573e-11
0.000275 5.66215e-10
0.00028 6.37528e-10
0.000285 1.84467e-10
0.00029 2.18615e-11
0.000295 3.86858e-10
0.0003 5.53102e-10
0.000305 2.09153e-10
0.00031 5.42816e-12
0.000315 3.11248e-10
0.00032 5.38231e-10
0.000325 2.58305e-10
0.00033 2.68401e-14
0.000335 2.54443e-10
0.00034 5.59558e-10
0.000345 3.56093e-10
0.00035 1.74741e-11
0.000355 1.59108e-10
0.00036 5.14224e-10
0.000365 4.33345e-10
0.00037 6.68253e-11
0.000375 7.18349e-11
0.00038 4.15421e-10
0.000385 4.60375e-10
0.00039 1.30647e-10
0.000395 1.69704e-11
0.0004 2.83257e-10
0.000405 4.01239e-10
0.00041 1.49754e-10
0.000415 4.69467e-12
0.00042 2.36363e-10
0.000425 4.14931e-10
0.00043 2.14572e-10
0.000435 2.13584e-12
0.00044 1.44531e-10
0.000445 3.46585e-10
0.00045 2.23899e-10
0.000455 1.06518e-11
0.00046 9.97315e-11
0.000465 3.08053e-10
0.00047 2.35838e-10
0.000475 2.16245e-11
0.00048 7.61234e-11
0.000485 3.06734e-10
0.00049 2.87958e-10
0.000495 5.46317e-11
0.0005 3.6732e-11
0.000505 2.61204e-10
0.00051 3.06482e-10
0.000515 8.83159e-11
0.00052 1.44572e-11
0.000525 2.25755e-10
0.00053 3.34353e-10
0.000535 1.40832e-10
0.00054 6.13833e-13
0.000545 1.67083e-10
0.00055 3.28826e-10
0.000555 1.87949e-10
0.00056 4.383e-12
0.000565 1.09758e-10
0.00057 2.99786e-10
0.000575 2.20335e-10
0.00058 2.0004e-11
0.000585 6.72982e-11
0.00059 2.69663e-10
0.000595 2.51712e-10
0.0006 4.82635e-11
0.000605 2.97675e-11
0.00061 2.14437e-10
0.000615 2.46153e-10
0.00062 6.50394e-11
0.000625 1.68161e-11
0.00063 2.03075e-10
0.000635 2.86109e-10
0.00064 1.12958e-10
0.000645 1.69563e-12
0.00065 1.58109e-10
0.000655 2.97676e-10
0.00066 1.66995e-10
0.000665 3.78622e-12
0.00067 9.63623e-11
0.000675 2.60413e-10
0.00068 1.88453e-10
0.000685 1.56647e-11
0.00069 6.25231e-11
0.000695 2.41194e-10
0.0007 2.21222e-10
0.000705 3.99466e-11
0.00071 3.09355e-11
0.000715 2.0958e-10
0.00072 2.47985e-10
0.000725 7.70203e-11
0.00073 7.1891e-12
0.000735 1.57478e-10
0.00074 2.4566e-10
0.000745 1.11091e-10
0.00075 8.10962e-16
0.000755 1.03432e-10
0.00076 2.13541e-10
0.000765 1.20936e-10
0.00077 1.8197e-12
0.000775 8.28447e-11
0.00078 2.17358e-10
0.000785 1.58114e-10
0.00079 1.43075e-11
0.000795 4.80089e-11
0.0008 1.9253e-10
0.000805 1.80263e-10
0.00081 3.49697e-11
0.000815 2.10152e-11
0.00082 1.55106e-10
0.000825 1.83739e-10
0.00083 5.49049e-11
0.000835 6.64336e-12
0.00084 1.20496e-10
0.000845 1.75678e-10
0.00085 6.70482e-11
0.000855 2.24322e-12
0.00086 1.12676e-10
0.000865 2.0426e-10
0.00087 1.11702e-10
0.000875 2.01849e-12
0.00088 6.92339e-11
0.000885 1.83739e-10
0.00089 1.35043e-10
0.000895 1.35381e-11
0.0009 3.53709e-11
0.000905 1.46756e-10
0.00091 1.34596e-10
0.000915 2.30972e-11
0.00092 2.03983e-11
0.000925 1.27695e-10
0.00093 1.41616e-10
0.000935 3.64248e-11
0.00094 9.53351e-12
0.000945 1.10684e-10
0.00095 1.49932e-10
0.000955 5.36682e-11
0.00096 2.54122e-12
0.000965 9.46093e-11
0.00097 1.61559e-10
0.000975 8.00688e-11
0.00098 2.08291e-13
0.000985 6.75092e-11
0.00099 1.5432e-10
0.000995 9.78524e-11
0.001 3.74461e-12
0.001005 5.27645e-11
0.00101 1.65783e-10
0.001015 1.43629e-10
0.00102 2.61708e-11
0.001025 1.65752e-11
0.00103 1.15483e-10
0.001035 1.31596e-10
0.00104 3.59913e-11
0.001045 6.98313e-12
0.00105 9.6107e-11
0.001055 1.36983e-10
0.00106 5.52709e-11
0.001065 3.62248e-13
0.00107 6.42944e-11
0.001075 1.17077e-10
0.00108 5.69109e-11
0.001085 3.954e-16
0.00109 5.83563e-11
0.001095 1.26935e-10
0.0011 7.89386e-11
0.001105 3.09538e-12
0.00111 3.96046e-11
0.001115 1.20231e-10
0.00112 9.5485e-11
0.001125 1.14465e-11
0.00113 2.24612e-11
0.001135 1.04073e-10
0.00114 1.00573e-10
0.001145 1.81057e-11
0.00115 1.67528e-11
0.001155 1.12592e-10
0.00116 1.40587e-10
0.001165 5.14737e-11
0.00117 9.41551e-13
0.001175 6.90312e-11
0.00118 1.21723e-10
0.001185 6.08639e-11
0.00119 1.76828e-13
0.001195 5.10719e-11
0.0012 1.18779e-10
0.001205 7.94726e-11
0.00121 5.49334e-12
0.001215 2.75169e-11
0.00122 9.58782e-11
0.001225 7.92996e-11
0.00123 9.72841e-12
0.001235 1.96156e-11
0.00124 9.40697e-11
0.001245 9.82024e-11
0.00125 2.50357e-11
0.001255 5.56086e-12
0.00126 6.80597e-11
0.001265 9.20315e-11
0.00127 3.35308e-11
0.001275 9.80979e-13
0.00128 4.92275e-11
0.001285 8.12849e-11
0.00129 3.52943e-11
0.001295 2.35322e-13
0.0013 4.50984e-11
0.001305 8.66226e-11
0.00131 4.60162e-11
0.001315 1.88511e-13
0.00132 4.06639e-11
0.001325 1.00323e-10
0.00133 7.27419e-11
0.001335 7.20743e-12
0.00134 1.9678e-11
0.001345 8.26051e-11
0.00135 7.85312e-11
0.001355 1.56318e-11
0.00136 8.68201e-12
0.001365 6.57281e-11
0.00137 7.65802e-11
0.001375 2.05392e-11
0.00138 5.24659e-12
0.001385 6.51314e-11
0.00139 9.45981e-11
0.001395 4.07406e-11
0.0014 2.90767e-14
0.001405 4.15395e-11
0.00141 8.31175e-11
0.001415 4.61454e-11
0.00142 5.48e-13
0.001425 3.37207e-11
0.00143 8.79981e-11
0.001435 6.60363e-11
0.00144 7.70754e-12
0.001445 1.41435e-11
0.00145 6.35148e-11
0.001455 5.7938e-11
0.00146 8.50534e-12
0.001465 1.26133e-11
0.00147 6.84039e-11
0.001475 7.47844e-11
0.00148 1.93796e-11
0.001485 5.21826e-12
0.00149 6.28349e-11
0.001495 9.18298e-11
0.0015 4.09993e-11
0.001505 4.65598e-15
0.00151 3.73615e-11
0.001515 8.01271e-11
0.00152 4.97176e-11
0.001525 2.27911e-12
0.00153 2.20513e-11
0.001535 6.89979e-11
0.00154 5.6247e-11
0.001545 7.95408e-12
0.00155 9.97873e-12
0.001555 5.2463e-11
0.00156 5.36792e-11
0.001565 1.21891e-11
0.00157 4.33658e-12
0.001575 4.00318e-11
0.00158 4.8388e-11
0.001585 1.36031e-11
0.00159 2.64418e-12
0.001595 3.6369e-11
0.0016 5.0122e-11
0.001605 1.73631e-11
0.00161 1.31693e-12
0.001615 3.58142e-11
0.00162 5.93732e-11
0.001625 2.85422e-11
0.00163 1.64065e-14
0.001635 2.66275e-11
0.00164 5.90788e-11
0.001645 3.69214e-11
0.00165 1.34127e-12
0.001655 2.0029e-11
0.00166 6.15482e-11
0.001665 5.14159e-11
0.00167 7.91072e-12
0.001675 8.52785e-12
0.00168 4.90329e-11
0.001685 5.3225e-11
0.00169 1.35168e-11
0.001695 3.64722e-12
0.0017 4.21556e-11
0.001705 5.86036e-11
0.00171 2.31219e-11
0.001715 2.62201e-13
0.00172 3.00119e-11
0.001725 5.59482e-11
0.00173 3.03232e-11
0.001735 4.51032e-13
0.00174 1.93355e-11
0.001745 4.8484e-11
0.00175 3.17414e-11
0.001755 1.19353e-12
0.00176 1.83047e-11
0.001765 5.87553e-11
0.00177 5.34211e-11
0.001775 1.16848e-11
0.00178 3.86563e-12
0.001785 3.6861e-11
0.00179 4.70942e-11
0.001795 1.68228e-11
0.0018 3.15515e-13
0.001805 2.02558e-11
0.00181 3.05713e-11
0.001815 9.40001e-12
0.00182 2.46225e-12
0.001825 3.45159e-11
0.00183 5.64157e-11
0.001835 3.07182e-11
0.00184 8.64219e-13
0.001845 1.59068e-11
0.00185 4.53246e-11
0.001855 3.57538e-11
0.00186 4.98683e-12
0.001865 6.12754e-12
0.00187 3.22699e-11
0.001875 3.34101e-11
0.00188 8.10548e-12
0.001885 2.13006e-12
0.00189 2.32123e-11
0.001895 3.01867e-11
0.0019 1.05337e-11
0.001905 3.53029e-13
0.00191 1.50008e-11
0.001915 2.3039e-11
0.00192 8.41527e-12
0.001925 5.67877e-13
0.00193 1.73085e-11
0.001935 3.00991e-11
0.00194 1.64709e-11
0.001945 5.01138e-13
0.00195 7.33755e-12
0.001955 1.88229e-11
0.00196 1.11828e-11
0.001965 1.22019e-13
0.00197 8.523e-12
0.001975 2.1098e-11
0.00198 1.36413e-11
0.001985 4.51286e-13
0.00199 8.03457e-12
0.001995 2.40024e-11
0.002 1.90459e-11
0.002005 2.19382e-12
0.00201 4.89499e-12
0.002015 2.22717e-11
0.00202 2.17394e-11
0.002025 4.14929e-12
0.00203 3.15983e-12
0.002035 2.25643e-11
0.00204 2.79467e-11
0.002045 9.51927e-12
0.00205 4.86181e-13
0.002055 1.65391e-11
0.00206 2.76663e-11
0.002065 1.36201e-11
0.00207 7.04301e-14
0.002075 9.6335e-12
0.00208 2.05138e-11
0.002085 1.00319e-11
0.00209 1.00846e-13
0.002095 1.6781e-11
0.0021 3.7766e-11
0.002105 2.83605e-11
0.00211 3.99076e-12
0.002115 4.64945e-12
0.00212 2.5148e-11
0.002125 2.63428e-11
0.00213 6.25813e-12
0.002135 2.08628e-12
0.00214 2.10241e-11
0.002145 2.73271e-11
0.00215 8.94684e-12
0.002155 9.95588e-13
0.00216 2.21148e-11
0.002165 3.89861e-11
0.00217 2.37585e-11
0.002175 1.82877e-12
0.00218 6.1207e-12
0.002185 2.15771e-11
0.00219 1.68826e-11
0.002195 1.55372e-12
0.0022 5.57589e-12
0.002205 2.29648e-11
0.00221 2.30443e-11
0.002215 6.04142e-12
0.00222 8.36145e-13
0.002225 1.20665e-11
0.00223 1.47825e-11
0.002235 3.40017e-12
0.00224 2.08011e-12
0.002245 1.80868e-11
0.00225 2.59672e-11
0.002255 1.248e-11
0.00226 1.53771e-13
0.002265 7.24149e-12
0.00227 1.72478e-11
0.002275 1.10408e-11
0.00228 5.65222e-13
0.002285 4.45434e-12
0.00229 1.37715e-11
0.002295 1.03768e-11
0.0023 9.20056e-13
0.002305 3.2948e-12
0.00231 1.29931e-11
0.002315 1.21997e-11
0.00232 2.66001e-12
0.002325 7.48317e-13
0.00233 6.46428e-12
0.002335 5.84666e-12
0.00234 2.72119e-13
0.002345 4.47358e-12
0.00235 1.61532e-11
0.002355 1.66299e-11
0.00236 4.62298e-12
0.002365 7.16691e-13
0.00237 1.16621e-11
0.002375 1.82312e-11
0.00238 9.09187e-12
0.002385 1.21252e-13
0.00239 5.37859e-12
0.002395 1.30455e-11
0.0024 8.50436e-12
0.002405 4.77342e-13
0.00241 3.23108e-12
0.002415 1.00267e-11
0.00242 7.09389e-12
0.002425 3.20294e-13
0.00243 3.90033e-12
0.002435 1.26742e-11
0.00244 1.08799e-11
0.002445 1.65931e-12
0.00245 2.05411e-12
0.002455 1.18304e-11
0.00246 1.34903e-11
0.002465 4.00761e-12
0.00247 5.08844e-13
0.002475 9.48656e-12
0.00248 1.52745e-11
0.002485 8.01637e-12
0.00249 2.34807e-13
0.002495 3.40798e-12
0.0025 8.48545e-12
0.002505 4.68408e-12
0.00251 5.14461e-16
0.002515 5.55007e-12
0.00252 1.37406e-11
0.002525 1.10833e-11
0.00253 2.09171e-12
0.002535 8.63651e-13
0.00254 6.49322e-12
0.002545 6.72104e-12
0.00255 1.2194e-12
0.002555 1.10392e-12
0.00256 7.05411e-12
0.002565 7.82212e-12
0.00257 1.80023e-12
0.002575 9.97898e-13
0.00258 9.37056e-12
0.002585 1.48039e-11
0.00259 9.28509e-12
0.002595 1.39091e-12
0.0026 4.9624e-13
0.002605 2.54322e-12
0.00261 1.12502e-12
0.002615 2.87333e-13
0.00262 5.0925e-12
0.002625 9.65046e-12
0.00263 6.62994e-12
0.002635 8.16061e-13
0.00264 1.11596e-12
0.002645 5.34512e-12
0.00265 5.13973e-12
0.002655 1.07252e-12
0.00266 4.02074e-13
0.002665 3.15794e-12
0.00267 3.03009e-12
0.002675 2.87856e-13
0.00268 1.38022e-12
0.002685 6.01584e-12
0.00269 6.74002e-12
0.002695 2.33805e-12
0.0027 2.50301e-14
0.002705 2.35051e-12
0.00271 3.36304e-12
0.002715 7.93996e-13
0.00272 5.94512e-13
0.002725 4.89101e-12
0.00273 6.65665e-12
0.002735 2.50212e-12
0.00274 1.22108e-13
0.002745 5.13687e-12
0.00275 1.0236e-11
0.002755 7.09504e-12
0.00276 8.41694e-13
0.002765 1.36277e-12
0.00277 6.5131e-12
0.002775 6.56121e-12
0.00278 1.49264e-12
0.002785 5.88229e-13
0.00279 5.77059e-12
0.002795 8.38922e-12
0.0028 4.27691e-12
0.002805 1.66411e-13
0.00281 1.45019e-12
0.002815 3.89463e-12
0.00282 2.55861e-12
0.002825 1.67629e-13
0.00283 7.20061e-13
0.002835 2.03949e-12
0.00284 9.86883e-13
0.002845 4.26684e-14
0.00285 2.20933e-12
0.002855 4.44435e-12
0.00286 2.85472e-12
0.002865 1.72066e-13
0.00287 1.13093e-12
0.002875 3.89903e-12
0.00288 3.3959e-12
0.002885 5.47205e-13
0.00289 5.7149e-13
0.002895 3.48834e-12
0.0029 4.12322e-12
0.002905 1.39899e-12
0.00291 4.56136e-14
0.002915 2.04148e-12
0.00292 3.44919e-12
0.002925 1.77755e-12
0.00293 4.21943e-14
0.002935 7.51925e-13
0.00294 1.64006e-12
0.002945 6.66928e-13
0.00295 5.84168e-14
0.002955 1.60495e-12
0.00296 2.65958e-12
0.002965 1.10163e-12
0.00297 6.55734e-14
0.002975 2.7847e-12
0.00298 6.21521e-12
0.002985 5.36063e-12
0.00299 1.47846e-12
0.002995 7.56343e-14
0.003 2.10622e-12
0.003005 3.19528e-12
0.00301 1.4239e-12
0.003015 1.30957e-15
0.00302 1.14339e-12
0.003025 2.52697e-12
0.00303 1.79871e-12
0.003035 3.152e-13
0.00304 6.06049e-14
0.003045 3.64332e-13
0.00305 1.05639e-13
0.003055 1.47352e-13
0.00306 1.08818e-12
0.003065 1.35994e-12
0.00307 2.82089e-13
0.003075 4.72485e-13
0.00308 3.97992e-12
0.003085 7.95286e-12
0.00309 7.80397e-12
0.003095 3.6955e-12
0.0031 3.27817e-13
0.003105 5.20895e-13
0.00311 2.3047e-12
0.003115 2.75727e-12
0.00312 1.7276e-12
0.003125 7.02382e-13
0.00313 3.24559e-13
0.003135 4.20533e-13
0.00314 9.26577e-13
0.003145 1.53996e-12
0.00315 1.50836e-12
0.003155 7.04469e-13
0.00316 4.37288e-14
0.003165 1.50652e-13
0.00317 4.8519e-13
0.003175 3.88309e-13
0.00318 8.22182e-14
0.003185 2.90626e-15
0.00319 2.22407e-14
0.003195 1.00813e-14
0.0032 3.49694e-13
0.003205 1.17229e-12
0.00321 1.79316e-12
0.003215 1.61558e-12
0.00322 9.82478e-13
0.003225 5.65416e-13
0.00323 6.36253e-13
0.003235 1.46945e-12
0.00324 3.41348e-12
0.003245 5.6491e-12
0.00325 5.99758e-12
0.003255 3.49151e-12
0.00326 4.9967e-13
0.003265 5.06083e-13
0.00327 3.77308e-12
0.003275 6.82577e-12
0.00328 6.61491e-12
0.003285 3.76884e-12
0.00329 1.0766e-12
0.003295 4.82563e-14
0.0033 7.05231e-14
0.003305 1.33917e-13
0.00331 4.2628e-14
0.003315 7.3711e-17
0.00332 1.26699e-14
0.003325 2.94038e-15
0.00333 1.01299e-14
0.003335 5.29925e-14
0.00334 5.76589e-14
0.003345 1.44982e-14
0.00335 2.80717e-15
0.003355 2.77646e-14
0.00336 1.85973e-14
0.003365 2.14671e-15
0.00337 9.69831e-14
0.003375 3.00051e-13
0.00338 4.30337e-13
0.003385 3.45131e-13
0.00339 1.23882e-13
0.003395 7.09245e-18
0.0034 1.75967e-13
0.003405 7.247e-13
0.00341 1.58366e-12
0.003415 2.54652e-12
0.00342 3.25687e-12
0.003425 3.32567e-12
0.00343 2.6131e-12
0.003435 1.4441e-12
0.00344 4.3713e-13
0.003445 1.36918e-14
0.00345 1.00198e-13
0.003455 3.3823e-13
0.00346 4.86289e-13
0.003465 5.4607e-13
0.00347 6.14967e-13
0.003475 7.37119e-13
0.00348 8.33474e-13
0.003485 7.24387e-13
0.00349 3.53929e-13
0.003495 2.27366e-14
0.0035 1.33169e-13
0.003505 5.83525e-13
0.00351 7.65031e-13
0.003515 4.0729e-13
0.00352 2.45418e-14
0.003525 1.13942e-13
0.00353 3.42041e-13
0.003535 1.81122e-13
0.00354 1.29072e-14
0.003545 6.75368e-13
0.00355 1.95659e-12
0.003555 2.55006e-12
0.00356 1.79541e-12
0.003565 5.72929e-13
0.00357 1.27087e-14
0.003575 1.08478e-13
0.00358 1.9429e-13
0.003585 8.32173e-14
0.00359 8.11284e-15
0.003595 7.9583e-15
0.0036 1.74612e-13
0.003605 1.04221e-12
0.00361 2.82528e-12
0.003615 4.54418e-12
0.00362 4.82788e-12
0.003625 3.53234e-12
0.00363 1.82019e-12
0.003635 7.1511e-13
0.00364 2.94707e-13
0.003645 2.09555e-13
0.00365 2.0527e-13
0.003655 1.10544e-13
0.00366 7.15066e-16
0.003665 3.37307e-13
0.00367 1.26983e-12
0.003675 1.97945e-12
0.00368 1.58295e-12
0.003685 5.21356e-13
0.00369 2.21293e-15
0.003695 1.81606e-13
0.0037 1.92562e-13
0.003705 1.65163e-15
0.00371 6.1369e-13
0.003715 1.97504e-12
0.00372 2.41606e-12
0.003725 1.18985e-12
0.00373 2.63724e-14
0.003735 7.51095e-13
0.00374 2.55029e-12
0.003745 3.20765e-12
0.00375 2.1965e-12
0.003755 8.79719e-13
0.00376 2.49823e-13
0.003765 1.48344e-13
0.00377 3.17306e-13
0.003775 5.99213e-13
0.00378 4.64095e-13
0.003785 6.19564e-15
0.00379 9.3385e-13
0.003795 4.45848e-12
0.0038 8.37847e-12
0.003805 8.76267e-12
0.00381 5.04014e-12
0.003815 1.03974e-12
0.00382 5.64641e-14
0.003825 1.14827e-12
0.00383 1.60515e-12
0.003835 8.78436e-13
0.00384 1.95168e-13
0.003845 3.09677e-14
0.00385 1.21419e-13
0.003855 7.51214e-13
0.00386 1.93253e-12
0.003865 2.32188e-12
0.00387 1.09501e-12
0.003875 2.36427e-15
0.00388 1.20263e-12
0.003885 3.67036e-12
0.00389 4.30573e-12
0.003895 2.39999e-12
0.0039 3.97977e-13
0.003905 5.10884e-14
0.00391 4.12412e-13
0.003915 2.54324e-13
0.00392 5.32678e-17
0.003925 2.2088e-13
0.00393 3.43436e-13
0.003935 5.36914e-14
0.00394 1.67486e-13
0.003945 9.34632e-13
0.00395 1.20739e-12
0.003955 4.80214e-13
0.00396 3.42082e-15
0.003965 5.69785e-13
0.00397 1.00809e-12
0.003975 4.12333e-13
0.00398 2.79816e-14
0.003985 1.02302e-12
0.00399 2.09054e-12
0.003995 1.52135e-12
0.004 2.25471e-13
0.004005 1.96531e-13
0.00401 1.11768e-12
0.004015 1.16419e-12
0.00402 3.08998e-13
0.004025 2.37764e-14
0.00403 3.36814e-13
0.004035 1.63965e-13
0.00404 1.21504e-13
0.004045 1.71434e-12
0.00405 3.78928e-12
0.004055 3.42437e-12
0.00406 9.20046e-13
0.004065 1.53856e-13
0.00407 2.65915e-12
0.004075 4.97463e-12
0.00408 3.90078e-12
0.004085 1.12044e-12
0.00409 8.27395e-16
0.004095 5.7831e-13
0.0041 7.29987e-13
0.004105 1.60513e-13
0.00411 4.32783e-14
0.004115 2.64297e-13
0.00412 6.94318e-14
0.004125 1.99044e-13
0.00413 1.48572e-12
0.004135 2.52317e-12
0.00414 1.66336e-12
0.004145 1.78056e-13
0.00415 3.52137e-13
0.004155 1.54223e-12
0.00416 1.45602e-12
0.004165 3.11644e-13
0.00417 7.27768e-14
0.004175 5.0901e-13
0.00418 1.58738e-13
0.004185 3.97476e-13
0.00419 3.61083e-12
0.004195 7.5238e-12
0.0042 7.01471e-12
0.004205 2.41299e-12
0.00421 9.50559e-15
0.004215 2.42924e-12
0.00422 4.67384e-12
0.004225 2.77988e-12
0.00423 1.58494e-13
0.004235 8.42969e-13
0.00424 2.33241e-12
0.004245 1.10116e-12
0.00425 9.57813e-14
0.004255 3.42996e-12
0.00426 7.55632e-12
0.004265 6.12791e-12
0.00427 1.20754e-12
0.004275 5.49544e-13
0.00428 4.64067e-12
0.004285 6.03716e-12
0.00429 2.3528e-12
0.004295 9.23329e-15
0.0043 2.37076e-12
0.004305 3.95488e-12
0.00431 1.29365e-12
0.004315 4.30485e-13
0.00432 6.50116e-12
0.004325 1.32861e-11
0.00433 1.18175e-11
0.004335 4.24345e-12
0.00434 3.67542e-14
0.004345 1.71133e-12
0.00435 3.4102e-12
0.004355 1.9291e-12
0.00436 1.93205e-13
0.004365 7.07719e-14
0.00437 3.44854e-14
0.004375 5.15726e-13
0.00438 3.80707e-12
0.004385 7.65872e-12
0.00439 6.69555e-12
0.004395 1.79175e-12
0.0044 2.295e-13
0.004405 4.14579e-12
0.00441 6.77641e-12
0.004415 3.73469e-12
0.00442 1.50446e-13
0.004425 1.56402e-12
0.00443 4.84531e-12
0.004435 4.38226e-12
0.00444 1.33379e-12
0.004445 5.36265e-15
0.00445 1.6223e-13
0.004455 1.53526e-14
0.00446 2.0746e-12
0.004465 8.08111e-12
0.00447 1.22093e-11
0.004475 8.33854e-12
0.00448 1.2879e-12
0.004485 1.14369e-12
0.00449 7.81135e-12
0.004495 1.12377e-11
0.0045 6.99853e-12
0.004505 1.4633e-12
0.00451 7.75818e-15
0.004515 2.61588e-13
0.00452 1.74348e-14
0.004525 1.96399e-12
0.00453 6.1081e-12
0.004535 6.69321e-12
0.00454 2.24128e-12
0.004545 1.50361e-13
0.00455 4.81914e-12
0.004555 9.29876e-12
0.00456 6.4504e-12
0.004565 9.00729e-13
0.00457 7.88323e-13
0.004575 4.08747e-12
0.00458 3.57729e-12
0.004585 3.85072e-13
0.00459 1.10595e-12
0.004595 4.71813e-12
0.0046 4.3775e-12
0.004605 6.7741e-13
0.00461 9.33997e-13
0.004615 5.33699e-12
0.00462 6.11402e-12
0.004625 1.84079e-12
0.00463 1.86349e-13
0.004635 3.62373e-12
0.00464 4.93808e-12
0.004645 1.35791e-12
0.00465 5.4571e-13
0.004655 6.16348e-12
0.00466 9.73635e-12
0.004665 5.22545e-12
0.00467 1.68043e-13
0.004675 2.23074e-12
0.00468 5.58358e-12
0.004685 2.78012e-12
0.00469 8.1724e-14
0.004695 6.17955e-12
0.0047 1.39764e-11
0.004705 1.08797e-11
0.00471 1.64639e-12
0.004715 1.84983e-12
0.00472 1.10629e-11
0.004725 1.31315e-11
0.00473 4.39777e-12
0.004735 2.30656e-13
0.00474 7.80357e-12
0.004745 1.3399e-11
0.00475 6.98008e-12
0.004755 7.24071e-14
0.00476 4.98888e-12
0.004765 1.28593e-11
0.00477 9.73659e-12
0.004775 1.27482e-12
0.00478 1.6625e-12
0.004785 7.87724e-12
0.00479 6.56226e-12
0.004795 3.77727e-13
0.0048 4.32646e-12
0.004805 1.73319e-11
0.00481 2.08959e-11
0.004815 9.46631e-12
0.00482 1.55165e-13
0.004825 4.84759e-12
0.00483 1.24764e-11
0.004835 9.66199e-12
0.00484 1.8076e-12
0.004845 4.98568e-13
0.00485 3.76569e-12
0.004855 3.24792e-12
0.00486 3.11067e-13
0.004865 7.82954e-13
0.00487 2.28622e-12
0.004875 6.34323e-13
0.00488 9.70414e-13
0.004885 8.30449e-12
0.00489 1.43404e-11
0.004895 9.33509e-12
0.0049 7.8827e-13
0.004905 3.02057e-12
0.00491 1.26906e-11
0.004915 1.37373e-11
0.00492 4.61564e-12
0.004925 6.04911e-14
0.00493 4.68945e-12
0.004935 6.471e-12
0.00494 1.27745e-12
0.004945 1.84532e-12
0.00495 1.2924e-11
0.004955 1.87391e-11
0.00496 9.26343e-12
0.004965 5.90608e-14
0.00497 7.77379e-12
0.004975 2.14224e-11
0.00498 1.96854e-11
0.004985 5.6293e-12
0.00499 2.47397e-13
0.004995 7.57549e-12
0.005 1.11845e-11
0.005005 4.48773e-12
0.00501 1.83935e-14
0.005015 4.49668e-12
0.00502 7.41565e-12
0.005025 2.54014e-12
0.00503 4.66471e-13
0.005035 8.45446e-12
0.00504 1.52109e-11
0.005045 9.66917e-12
0.00505 7.82844e-13
0.005055 2.98359e-12
0.00506 1.25102e-11
0.005065 1.45832e-11
0.00507 7.0317e-12
0.005075 6.77752e-13
0.00508 4.05073e-13
0.005085 1.04172e-12
0.00509 1.00821e-13
0.005095 6.80764e-13
0.0051 2.23874e-12
0.005105 1.12263e-12
0.00511 2.23859e-13
0.005115 5.91754e-12
0.00512 1.49003e-11
