-0.0051175 3.16641e-13
-0.0051125 1.45127e-12
-0.0051075 1.62818e-12
-0.0051025 5.85885e-13
-0.0050975 2.2626e-15
-0.0050925 5.48043e-13
-0.0050875 9.32528e-13
-0.0050825 3.90495e-13
-0.0050775 8.51504e-15
-0.0050725 6.69017e-13
-0.0050675 1.44953e-12
-0.0050625 1.20953e-12
-0.0050575 3.80983e-13
-0.0050525 2.83182e-15
-0.0050475 8.10377e-14
-0.0050425 5.84767e-14
-0.0050375 1.09833e-14
-0.0050325 2.57648e-13
-0.0050275 4.9052e-13
-0.0050225 3.06655e-13
-0.0050175 2.13104e-14
-0.0050125 8.4569e-14
-0.0050075 2.6464e-13
-0.0050025 1.77489e-13
-0.0049975 1.21968e-14
-0.0049925 3.11788e-14
-0.0049875 4.24244e-14
-0.0049825 9.03944e-15
-0.0049775 3.31019e-13
-0.0049725 8.74846e-13
-0.0049675 8.07625e-13
-0.0049625 1.5333e-13
-0.0049575 1.44671e-13
-0.0049525 1.02307e-12
-0.0049475 1.21374e-12
-0.0049425 2.33514e-13
-0.0049375 4.31566e-13
-0.0049325 3.36549e-12
-0.0049275 6.21237e-12
-0.0049225 5.20447e-12
-0.0049175 1.57233e-12
-0.0049125 1.83308e-14
-0.0049075 1.52821e-12
-0.0049025 2.30927e-12
-0.0048975 7.15885e-13
-0.0048925 2.03456e-13
-0.0048875 2.94747e-12
-0.0048825 5.24724e-12
-0.0048775 3.35588e-12
-0.0048725 2.42402e-13
-0.0048675 1.32543e-12
-0.0048625 5.63192e-12
-0.0048575 7.00216e-12
-0.0048525 3.56916e-12
-0.0048475 2.44607e-13
-0.0048425 7.65722e-13
-0.0048375 2.60156e-12
-0.0048325 2.11859e-12
-0.0048275 3.46233e-13
-0.0048225 2.2422e-13
-0.0048175 1.35178e-12
-0.0048125 1.31678e-12
-0.0048075 2.38017e-13
-0.0048025 1.72053e-13
-0.0047975 1.07489e-12
-0.0047925 1.00403e-12
-0.0047875 6.95483e-14
-0.0047825 7.90213e-13
-0.0047775 3.95716e-12
-0.0047725 6.90559e-12
-0.0047675 6.94629e-12
-0.0047625 4.53103e-12
-0.0047575 1.97367e-12
-0.0047525 5.80517e-13
-0.0047475 1.17462e-13
-0.0047425 8.40841e-15
-0.0047375 2.70899e-14
-0.0047325 3.24267e-13
-0.0047275 1.24391e-12
-0.0047225 2.63706e-12
-0.0047175 3.389e-12
-0.0047125 2.52518e-12
-0.0047075 7.88641e-13
-0.0047025 1.05146e-15
-0.0046975 7.02982e-13
-0.0046925 1.59331e-12
-0.0046875 1.53524e-12
-0.0046825 8.72012e-13
-0.0046775 4.07804e-13
-0.0046725 3.54265e-13
-0.0046675 7.1065e-13
-0.0046625 1.39207e-12
-0.0046575 1.59724e-12
-0.0046525 6.49464e-13
-0.0046475 6.23821e-14
-0.0046425 2.74507e-12
-0.0046375 8.74666e-12
-0.0046325 1.35783e-11
-0.0046275 1.2833e-11
-0.0046225 7.41473e-12
-0.0046175 2.1598e-12
-0.0046125 8.70957e-14
-0.0046075 1.96809e-13
-0.0046025 4.33336e-13
-0.0045975 2.9264e-13
-0.0045925 1.81397e-13
-0.0045875 3.44982e-13
-0.0045825 1.17112e-12
-0.0045775 2.9606e-12
-0.0045725 4.73781e-12
-0.0045675 4.72258e-12
-0.0045625 2.68112e-12
-0.0045575 5.49361e-13
-0.0045525 3.75481e-14
-0.0045475 7.52866e-13
-0.0045425 1.33257e-12
-0.0045375 1.31078e-12
-0.0045325 1.12828e-12
-0.0045275 1.20773e-12
-0.0045225 1.63263e-12
-0.0045175 2.01912e-12
-0.0045125 1.57571e-12
-0.0045075 3.54185e-13
-0.0045025 2.51418e-13
-0.0044975 2.89842e-12
-0.0044925 6.40987e-12
-0.0044875 6.7559e-12
-0.0044825 3.29262e-12
-0.0044775 2.15055e-13
-0.0044725 8.19495e-13
-0.0044675 3.02681e-12
-0.0044625 3.08411e-12
-0.0044575 1.17881e-12
-0.0044525 4.41952e-14
-0.0044475 8.43552e-14
-0.0044425 2.42605e-15
-0.0044375 7.76683e-13
-0.0044325 4.06146e-12
-0.0044275 7.20267e-12
-0.0044225 5.60073e-12
-0.0044175 9.61005e-13
-0.0044125 1.09054e-12
-0.0044075 8.64189e-12
-0.0044025 1.56331e-11
-0.0043975 1.37271e-11
-0.0043925 5.59043e-12
-0.0043875 3.30807e-13
-0.0043825 7.30194e-13
-0.0043775 1.76839e-12
-0.0043725 5.47227e-13
-0.0043675 2.6641e-13
-0.0043625 3.04988e-12
-0.0043575 5.37622e-12
-0.0043525 3.85792e-12
-0.0043475 7.86745e-13
-0.0043425 1.35399e-13
-0.0043375 1.46707e-12
-0.0043325 1.72316e-12
-0.0043275 5.72871e-13
-0.0043225 5.59282e-16
-0.0043175 2.38676e-13
-0.0043125 8.31415e-14
-0.0043075 3.14062e-13
-0.0043025 2.8317e-12
-0.0042975 6.48267e-12
-0.0042925 7.46049e-12
-0.0042875 4.57598e-12
-0.0042825 1.05109e-12
-0.0042775 2.06347e-14
-0.0042725 8.63636e-13
-0.0042675 1.28013e-12
-0.0042625 7.31054e-13
-0.0042575 1.72607e-13
-0.0042525 1.95981e-14
-0.0042475 3.25254e-14
-0.0042425 1.94131e-13
-0.0042375 4.24906e-13
-0.0042325 3.00151e-13
-0.0042275 1.44006e-15
-0.0042225 5.25221e-13
-0.0042175 1.99705e-12
-0.0042125 2.90799e-12
-0.0042075 2.13754e-12
-0.0042025 6.57431e-13
-0.0041975 6.97923e-15
-0.0041925 1.29707e-13
-0.0041875 1.05591e-13
-0.0041825 1.21161e-14
-0.0041775 4.00037e-13
-0.0041725 7.4788e-13
-0.0041675 3.27159e-13
-0.0041625 4.05711e-14
-0.0041575 1.29715e-12
-0.0041525 3.25481e-12
-0.0041475 3.44966e-12
-0.0041425 1.50715e-12
-0.0041375 2.28458e-14
-0.0041325 8.88816e-13
-0.0041275 2.68022e-12
-0.0041225 2.96001e-12
-0.0041175 1.61534e-12
-0.0041125 3.53627e-13
-0.0041075 3.16807e-15
-0.0041025 1.18782e-14
-0.0040975 1.06699e-14
-0.0040925 2.32011e-13
-0.0040875 5.39236e-13
-0.0040825 4.24053e-13
-0.0040775 4.574e-14
-0.0040725 1.63449e-13
-0.0040675 8.84013e-13
-0.0040625 1.403e-12
-0.0040575 1.17881e-12
-0.0040525 5.80912e-13
-0.0040475 1.76016e-13
-0.0040425 5.1376e-14
-0.0040375 4.89482e-14
-0.0040325 8.91174e-14
-0.0040275 8.19691e-14
-0.0040225 3.7386e-15
-0.0040175 1.32102e-13
-0.0040125 6.85446e-13
-0.0040075 1.22392e-12
-0.0040025 1.05938e-12
-0.0039975 3.41156e-13
-0.0039925 4.21224e-15
-0.0039875 4.21039e-13
-0.0039825 8.52444e-13
-0.0039775 6.17867e-13
-0.0039725 1.05462e-13
-0.0039675 5.28401e-14
-0.0039625 3.8118e-13
-0.0039575 4.4668e-13
-0.0039525 1.3778e-13
-0.0039475 2.04605e-14
-0.0039425 4.66108e-13
-0.0039375 1.19806e-12
-0.0039325 1.75584e-12
-0.0039275 2.006e-12
-0.0039225 2.09353e-12
-0.0039175 2.13281e-12
-0.0039125 2.03952e-12
-0.0039075 1.6098e-12
-0.0039025 8.32065e-13
-0.0038975 1.32861e-13
-0.0038925 7.21239e-14
-0.0038875 6.73026e-13
-0.0038825 1.31134e-12
-0.0038775 1.43059e-12
-0.0038725 1.10766e-12
-0.0038675 7.6553e-13
-0.0038625 6.57251e-13
-0.0038575 8.12104e-13
-0.0038525 1.09797e-12
-0.0038475 1.12737e-12
-0.0038425 6.01091e-13
-0.0038375 2.4507e-14
-0.0038325 4.09418e-13
-0.0038275 1.74817e-12
-0.0038225 2.54467e-12
-0.0038175 1.72501e-12
-0.0038125 3.29461e-13
-0.0038075 9.28584e-14
-0.0038025 8.41644e-13
-0.0037975 9.17715e-13
-0.0037925 1.35254e-13
-0.0037875 3.951e-13
-0.0037825 2.62395e-12
-0.0037775 4.81137e-12
-0.0037725 4.49115e-12
-0.0037675 2.08686e-12
-0.0037625 2.09559e-13
-0.0037575 2.10832e-13
-0.0037525 1.02182e-12
-0.0037475 1.24015e-12
-0.0037425 8.20588e-13
-0.0037375 4.17574e-13
-0.0037325 3.1151e-13
-0.0037275 4.97154e-13
-0.0037225 9.22066e-13
-0.0037175 1.17337e-12
-0.0037125 7.38936e-13
-0.0037075 5.15805e-14
-0.0037025 4.60458e-13
-0.0036975 2.49757e-12
-0.0036925 4.78781e-12
-0.0036875 5.42735e-12
-0.0036825 4.07524e-12
-0.0036775 2.03844e-12
-0.0036725 6.17989e-13
-0.0036675 6.84354e-14
-0.0036625 1.24163e-14
-0.0036575 1.77463e-13
-0.0036525 6.36226e-13
-0.0036475 1.71412e-12
-0.0036425 3.61113e-12
-0.0036375 5.77285e-12
-0.0036325 6.85199e-12
-0.0036275 5.86663e-12
-0.0036225 3.39008e-12
-0.0036175 1.09562e-12
-0.0036125 7.9419e-14
-0.0036075 6.18096e-14
-0.0036025 2.15542e-13
-0.0035975 1.84992e-13
-0.0035925 9.14078e-14
-0.0035875 5.44623e-14
-0.0035825 8.32769e-14
-0.0035775 1.76265e-13
-0.0035725 2.58173e-13
-0.0035675 2.01298e-13
-0.0035625 5.25153e-14
-0.0035575 2.05869e-15
-0.0035525 3.87768e-14
-0.0035475 4.46423e-15
-0.0035425 1.54916e-13
-0.0035375 1.16653e-12
-0.0035325 3.12951e-12
-0.0035275 4.87833e-12
-0.0035225 4.95805e-12
-0.0035175 3.24793e-12
-0.0035125 1.1452e-12
-0.0035075 6.67961e-14
-0.0035025 1.66394e-13
-0.0034975 6.24435e-13
-0.0034925 7.59072e-13
-0.0034875 5.37809e-13
-0.0034825 2.49288e-13
-0.0034775 7.31908e-14
-0.0034725 8.70975e-15
-0.0034675 1.37542e-15
-0.0034625 2.11588e-14
-0.0034575 5.92264e-14
-0.0034525 9.91753e-14
-0.0034475 1.07419e-13
-0.0034425 6.6675e-14
-0.0034375 1.24655e-14
-0.0034325 5.96794e-15
-0.0034275 6.99118e-14
-0.0034225 1.79039e-13
-0.0034175 3.12404e-13
-0.0034125 4.91328e-13
-0.0034075 7.63682e-13
-0.0034025 1.14103e-12
-0.0033975 1.51125e-12
-0.0033925 1.63151e-12
-0.0033875 1.32127e-12
-0.0033825 7.12819e-13
-0.0033775 1.93874e-13
-0.0033725 5.72311e-15
-0.0033675 1.13006e-14
-0.0033625 3.78655e-16
-0.0033575 1.05288e-13
-0.0033525 6.65855e-13
-0.0033475 1.67601e-12
-0.0033425 2.60131e-12
-0.0033375 2.86109e-12
-0.0033325 2.36828e-12
-0.0033275 1.5133e-12
-0.0033225 7.3971e-13
-0.0033175 2.48428e-13
-0.0033125 2.87829e-14
-0.0033075 1.84988e-14
-0.0033025 1.8639e-13
-0.0032975 4.98602e-13
-0.0032925 8.40913e-13
-0.0032875 1.02205e-12
-0.0032825 9.1313e-13
-0.0032775 5.82793e-13
-0.0032725 2.41188e-13
-0.0032675 4.54037e-14
-0.0032625 2.19119e-16
-0.0032575 3.19211e-14
-0.0032525 9.15637e-14
-0.0032475 1.75092e-13
-0.0032425 2.80686e-13
-0.0032375 3.54193e-13
-0.0032325 2.9767e-13
-0.0032275 1.09912e-13
-0.0032225 7.85964e-16
-0.0032175 1.81331e-13
-0.0032125 4.85132e-13
-0.0032075 4.75674e-13
-0.0032025 1.24527e-13
-0.0031975 4.82877e-14
-0.0031925 6.47117e-13
-0.0031875 1.27984e-12
-0.0031825 1.00005e-12
-0.0031775 1.4026e-13
-0.0031725 3.48359e-13
-0.0031675 2.57414e-12
-0.0031625 5.56549e-12
-0.0031575 7.00987e-12
-0.0031525 5.94041e-12
-0.0031475 3.46711e-12
-0.0031425 1.30879e-12
-0.0031375 2.38766e-13
-0.0031325 2.8428e-17
-0.0031275 9.72503e-14
-0.0031225 2.87731e-13
-0.0031175 5.47383e-13
-0.0031125 8.713e-13
-0.0031075 1.12685e-12
-0.0031025 1.09271e-12
-0.0030975 7.17745e-13
-0.0030925 2.63629e-13
-0.0030875 2.7496e-14
-0.0030825 3.20647e-15
-0.0030775 5.25265e-15
-0.0030725 8.83485e-15
-0.0030675 1.04517e-13
-0.0030625 2.1758e-13
-0.0030575 1.84977e-13
-0.0030525 5.36367e-14
-0.0030475 1.0412e-16
-0.0030425 2.15982e-14
-0.0030375 9.43122e-15
-0.0030325 8.28361e-15
-0.0030275 6.19413e-14
-0.0030225 2.98621e-14
-0.0030175 6.65463e-14
-0.0030125 9.87866e-13
-0.0030075 3.28356e-12
-0.0030025 5.78439e-12
-0.0029975 6.36791e-12
-0.0029925 4.40484e-12
-0.0029875 1.64531e-12
-0.0029825 1.43697e-13
-0.0029775 8.94738e-14
-0.0029725 3.30385e-13
-0.0029675 2.30491e-13
-0.0029625 4.86107e-14
-0.0029575 2.62086e-15
-0.0029525 1.78147e-14
-0.0029475 2.01963e-13
-0.0029425 6.71582e-13
-0.0029375 1.02513e-12
-0.0029325 7.81322e-13
-0.0029275 2.16002e-13
-0.0029225 2.62603e-15
-0.0029175 1.72222e-13
-0.0029125 2.15568e-13
-0.0029075 4.78869e-14
-0.0029025 1.63786e-14
-0.0028975 1.01783e-13
-0.0028925 3.41992e-14
-0.0028875 6.2465e-14
-0.0028825 5.93192e-13
-0.0028775 1.17832e-12
-0.0028725 9.95405e-13
-0.0028675 2.75946e-13
-0.0028625 8.02805e-15
-0.0028575 2.5388e-13
-0.0028525 2.15096e-13
-0.0028475 1.65012e-15
-0.0028425 5.57939e-13
-0.0028375 1.54686e-12
-0.0028325 1.40605e-12
-0.0028275 2.40759e-13
-0.0028225 3.52281e-13
-0.0028175 2.53909e-12
-0.0028125 4.16656e-12
-0.0028075 2.93697e-12
-0.0028025 5.68553e-13
-0.0027975 1.55184e-13
-0.0027925 1.45592e-12
-0.0027875 1.81124e-12
-0.0027825 6.84195e-13
-0.0027775 6.68182e-18
-0.0027725 4.07455e-13
-0.0027675 5.37158e-13
-0.0027625 6.14465e-14
-0.0027575 2.57253e-13
-0.0027525 1.11465e-12
-0.0027475 1.05794e-12
-0.0027425 1.48025e-13
-0.0027375 2.98113e-13
-0.0027325 1.51537e-12
-0.0027275 1.50598e-12
-0.0027225 1.94547e-13
-0.0027175 6.23586e-13
-0.0027125 3.41414e-12
-0.0027075 4.62284e-12
-0.0027025 2.13828e-12
-0.0026975 1.97628e-15
-0.0026925 2.12215e-12
-0.0026875 5.39528e-12
-0.0026825 4.52101e-12
-0.0026775 9.10955e-13
-0.0026725 3.92951e-13
-0.0026675 3.437e-12
-0.0026625 4.6147e-12
-0.0026575 1.97142e-12
-0.0026525 1.05561e-15
-0.0026475 1.5909e-12
-0.0026425 3.4137e-12
-0.0026375 2.23517e-12
-0.0026325 2.27287e-13
-0.0026275 3.51413e-13
-0.0026225 1.20931e-12
-0.0026175 5.85825e-13
-0.0026125 4.26329e-14
-0.0026075 1.56162e-12
-0.0026025 3.0787e-12
-0.0025975 1.99504e-12
-0.0025925 1.5518e-13
-0.0025875 5.41795e-13
-0.0025825 1.75458e-12
-0.0025775 9.8411e-13
-0.0025725 2.21834e-14
-0.0025675 2.36515e-12
-0.0025625 6.0298e-12
-0.0025575 5.77272e-12
-0.0025525 1.86712e-12
-0.0025475 2.87145e-14
-0.0025425 2.18338e-12
-0.0025375 3.86753e-12
-0.0025325 2.20005e-12
-0.0025275 1.41989e-13
-0.0025225 5.00046e-13
-0.0025175 1.40859e-12
-0.0025125 7.3953e-13
-0.0025075 3.01079e-18
-0.0025025 6.49191e-13
-0.0024975 1.02864e-12
-0.0024925 1.83005e-13
-0.0024875 4.65916e-13
-0.0024825 3.00434e-12
-0.0024775 4.68831e-12
-0.0024725 3.13741e-12
-0.0024675 6.79765e-13
-0.0024625 5.22976e-15
-0.0024575 1.12798e-13
-0.0024525 5.97528e-14
-0.0024475 1.8453e-12
-0.0024425 5.41522e-12
-0.0024375 6.16124e-12
-0.0024325 2.45733e-12
-0.0024275 4.90215e-15
-0.0024225 2.63828e-12
-0.0024175 5.05438e-12
-0.0024125 2.34207e-12
-0.0024075 5.55118e-14
-0.0024025 4.63928e-12
-0.0023975 1.00456e-11
-0.0023925 6.91832e-12
-0.0023875 4.46659e-13
-0.0023825 3.30407e-12
-0.0023775 1.29054e-11
-0.0023725 1.38154e-11
-0.0023675 4.23399e-12
-0.0023625 3.66644e-13
-0.0023575 8.6834e-12
-0.0023525 1.41478e-11
-0.0023475 6.72153e-12
-0.0023425 1.41347e-16
-0.0023375 7.6115e-12
-0.0023325 1.81655e-11
-0.0023275 1.40992e-11
-0.0023225 2.23286e-12
-0.0023175 1.85036e-12
-0.0023125 1.11349e-11
-0.0023075 1.16123e-11
-0.0023025 2.30641e-12
-0.0022975 1.91502e-12
-0.0022925 1.47913e-11
-0.0022875 2.17132e-11
-0.0022825 1.21321e-11
-0.0022775 1.00039e-12
-0.0022725 2.1295e-12
-0.0022675 6.95347e-12
-0.0022625 4.06183e-12
-0.0022575 6.81658e-15
-0.0022525 3.80189e-12
-0.0022475 7.95671e-12
-0.0022425 3.69428e-12
-0.0022375 1.24907e-13
-0.0022325 7.89671e-12
-0.0022275 1.67462e-11
-0.0022225 1.17327e-11
-0.0022175 1.11284e-12
-0.0022125 3.46359e-12
-0.0022075 1.4871e-11
-0.0022025 1.54974e-11
-0.0021975 4.48888e-12
-0.0021925 3.23483e-13
-0.0021875 6.90173e-12
-0.0021825 8.35151e-12
-0.0021775 1.33375e-12
-0.0021725 2.87417e-12
-0.0021675 1.72594e-11
-0.0021625 2.3941e-11
-0.0021575 1.20454e-11
-0.0021525 3.33481e-13
-0.0021475 5.42568e-12
-0.0021425 1.44395e-11
-0.0021375 1.00041e-11
-0.0021325 7.67885e-13
-0.0021275 2.99962e-12
-0.0021225 1.02057e-11
-0.0021175 7.35143e-12
-0.0021125 3.46528e-13
-0.0021075 3.7218e-12
-0.0021025 1.12384e-11
-0.0020975 7.75371e-12
-0.0020925 2.00118e-13
-0.0020875 5.79468e-12
-0.0020825 1.73225e-11
-0.0020775 1.38793e-11
-0.0020725 1.35111e-12
-0.0020675 5.24265e-12
-0.0020625 2.34804e-11
-0.0020575 2.62035e-11
-0.0020525 8.30898e-12
-0.0020475 5.94935e-13
-0.0020425 1.58047e-11
-0.0020375 2.56102e-11
-0.0020325 1.18576e-11
-0.0020275 2.1327e-15
-0.0020225 1.28576e-11
-0.0020175 2.82445e-11
-0.0020125 1.86702e-11
-0.0020075 1.28551e-12
-0.0020025 6.50265e-12
-0.0019975 2.27264e-11
-0.0019925 1.88438e-11
-0.0019875 2.31864e-12
-0.0019825 4.52522e-12
-0.0019775 2.08526e-11
-0.0019725 1.90821e-11
-0.0019675 2.26422e-12
-0.0019625 6.82129e-12
-0.0019575 3.43393e-11
-0.0019525 4.26876e-11
-0.0019475 1.81401e-11
-0.0019425 4.57514e-14
-0.0019375 1.21215e-11
-0.0019325 2.38237e-11
-0.0019275 1.05446e-11
-0.0019225 2.99862e-13
-0.0019175 2.00531e-11
-0.0019125 4.14475e-11
-0.0019075 2.8744e-11
-0.0019025 3.21181e-12
-0.0018975 5.78583e-12
-0.0018925 2.54461e-11
-0.0018875 2.29336e-11
-0.0018825 3.50504e-12
-0.0018775 4.11533e-12
-0.0018725 2.20859e-11
-0.0018675 2.10978e-11
-0.0018625 2.82009e-12
-0.0018575 6.36041e-12
-0.0018525 3.3062e-11
-0.0018475 3.87789e-11
-0.0018425 1.32392e-11
-0.0018375 4.49225e-13
-0.0018325 1.92836e-11
-0.0018275 3.01111e-11
-0.0018225 1.08814e-11
-0.0018175 1.1563e-12
-0.0018125 2.84854e-11
-0.0018075 5.19253e-11
-0.0018025 3.18209e-11
-0.0017975 2.00847e-12
-0.0017925 1.06723e-11
-0.0017875 3.53811e-11
-0.0017825 2.71816e-11
-0.0017775 2.14501e-12
-0.0017725 1.07773e-11
-0.0017675 4.18153e-11
-0.0017625 4.03026e-11
-0.0017575 8.73776e-12
-0.0017525 3.67905e-12
-0.0017475 3.20824e-11
-0.0017425 3.91036e-11
-0.0017375 1.1134e-11
-0.0017325 2.39363e-12
-0.0017275 3.33981e-11
-0.0017225 4.97796e-11
-0.0017175 2.14483e-11
-0.0017125 6.74111e-14
-0.0017075 2.54166e-11
-0.0017025 5.12801e-11
-0.0016975 2.97524e-11
-0.0016925 6.18166e-13
-0.0016875 1.92893e-11
-0.0016825 5.37646e-11
-0.0016775 4.16519e-11
-0.0016725 4.80799e-12
-0.0016675 1.03276e-11
-0.0016625 4.76779e-11
-0.0016575 4.779e-11
-0.0016525 1.03047e-11
-0.0016475 5.16004e-12
-0.0016425 4.43625e-11
-0.0016375 5.87793e-11
-0.0016325 2.29684e-11
-0.0016275 1.69396e-13
-0.0016225 2.68347e-11
-0.0016175 4.9133e-11
-0.0016125 2.4852e-11
-0.0016075 6.40302e-14
-0.0016025 2.13202e-11
-0.0015975 4.94075e-11
-0.0015925 3.31651e-11
-0.0015875 2.58613e-12
-0.0015825 9.2965e-12
-0.0015775 3.10421e-11
-0.0015725 2.02778e-11
-0.0015675 1.43176e-13
-0.0015625 2.07703e-11
-0.0015575 5.72911e-11
-0.0015525 4.80325e-11
-0.0015475 8.33631e-12
-0.0015425 5.99976e-12
-0.0015375 3.87952e-11
-0.0015325 4.09997e-11
-0.0015275 8.14879e-12
-0.0015225 6.33877e-12
-0.0015175 4.62855e-11
-0.0015125 5.84785e-11
-0.0015075 2.05231e-11
-0.0015025 8.697e-13
-0.0014975 3.42447e-11
-0.0014925 5.81132e-11
-0.0014875 2.85866e-11
-0.0014825 1.10781e-13
-0.0014775 2.10796e-11
-0.0014725 4.37329e-11
-0.0014675 2.00603e-11
-0.0014625 6.23586e-13
-0.0014575 4.10718e-11
-0.0014525 8.67813e-11
-0.0014475 6.13259e-11
-0.0014425 6.76201e-12
-0.0014375 1.37462e-11
-0.0014325 6.08476e-11
-0.0014275 5.65617e-11
-0.0014225 9.10576e-12
-0.0014175 1.09399e-11
-0.0014125 6.50872e-11
-0.0014075 7.56939e-11
-0.0014025 2.35226e-11
-0.0013975 2.03379e-12
-0.0013925 4.56312e-11
-0.0013875 6.83137e-11
-0.0013825 2.65143e-11
-0.0013775 7.69613e-13
-0.0013725 4.20392e-11
-0.0013675 7.26731e-11
-0.0013625 3.32564e-11
-0.0013575 1.5848e-13
-0.0013525 4.42873e-11
-0.0013475 9.08099e-11
-0.0013425 5.29514e-11
-0.0013375 7.63822e-13
-0.0013325 4.14174e-11
-0.0013275 1.17259e-10
-0.0013225 9.86889e-11
-0.0013175 1.70472e-11
-0.0013125 1.30527e-11
-0.0013075 8.56111e-11
-0.0013025 9.62457e-11
-0.0012975 2.45084e-11
-0.0012925 7.93738e-12
-0.0012875 8.91248e-11
-0.0012825 1.31091e-10
-0.0012775 6.05816e-11
-0.0012725 1.19981e-13
-0.0012675 4.90727e-11
-0.0012625 1.10396e-10
-0.0012575 7.18259e-11
-0.0012525 4.74897e-12
-0.0012475 2.36583e-11
-0.0012425 7.73913e-11
-0.0012375 5.62958e-11
-0.0012325 3.02728e-12
-0.0012275 2.78616e-11
-0.0012225 9.28295e-11
-0.0012175 7.82692e-11
-0.0012125 1.04593e-11
-0.0012075 1.79256e-11
-0.0012025 9.08547e-11
-0.0011975 9.53496e-11
-0.0011925 2.2661e-11
-0.0011875 7.85307e-12
-0.0011825 7.76771e-11
-0.0011775 9.89607e-11
-0.0011725 3.00698e-11
-0.0011675 5.14347e-12
-0.0011625 8.40699e-11
-0.0011575 1.31511e-10
-0.0011525 6.13408e-11
-0.0011475 1.04903e-14
-0.0011425 5.85781e-11
-0.0011375 1.27659e-10
-0.0011325 7.81844e-11
-0.0011275 2.33155e-12
-0.0011225 4.64035e-11
-0.0011175 1.38835e-10
-0.0011125 1.16292e-10
-0.0011075 1.93639e-11
-0.0011025 1.52594e-11
-0.0010975 9.33375e-11
-0.0010925 9.58566e-11
-0.0010875 1.84139e-11
-0.0010825 1.41419e-11
-0.0010775 9.74463e-11
-0.0010725 1.11979e-10
-0.0010675 2.89042e-11
-0.0010625 8.96016e-12
-0.0010575 9.92878e-11
-0.0010525 1.35386e-10
-0.0010475 4.79042e-11
-0.0010425 3.20653e-12
-0.0010375 9.7233e-11
-0.0010325 1.65617e-10
-0.0010275 8.1386e-11
-0.0010225 3.25303e-14
-0.0010175 8.19914e-11
-0.0010125 1.89474e-10
-0.0010075 1.28689e-10
-0.0010025 8.64152e-12
-0.0009975 5.03611e-11
-0.0009925 1.81732e-10
-0.0009875 1.63894e-10
-0.0009825 2.87706e-11
-0.0009775 2.4357e-11
-0.0009725 1.59807e-10
-0.0009675 1.86011e-10
-0.0009625 5.41159e-11
-0.0009575 8.36954e-12
-0.0009525 1.35674e-10
-0.0009475 2.01457e-10
-0.0009425 8.25171e-11
-0.0009375 1.12485e-12
-0.0009325 1.19229e-10
-0.0009275 2.33709e-10
-0.0009225 1.40421e-10
-0.0009175 5.88692e-12
-0.0009125 6.36976e-11
-0.0009075 1.91644e-10
-0.0009025 1.45277e-10
-0.0008975 1.28532e-11
-0.0008925 4.92534e-11
-0.0008875 1.98126e-10
-0.0008825 1.90821e-10
-0.0008775 4.09024e-11
-0.0008725 1.7292e-11
-0.0008675 1.4704e-10
-0.0008625 1.73384e-10
-0.0008575 4.46054e-11
-0.0008525 1.48908e-11
-0.0008475 1.62128e-10
-0.0008425 2.27306e-10
-0.0008375 9.05339e-11
-0.0008325 1.10703e-12
-0.0008275 1.20297e-10
-0.0008225 2.20333e-10
-0.0008175 1.09635e-10
-0.0008125 2.6855e-15
-0.0008075 1.19484e-10
-0.0008025 2.76332e-10
-0.0007975 1.94184e-10
-0.0007925 1.78052e-11
-0.0007875 5.50047e-11
-0.0007825 2.19759e-10
-0.0007775 1.98783e-10
-0.0007725 3.22949e-11
-0.0007675 3.43117e-11
-0.0007625 2.03716e-10
-0.0007575 2.24754e-10
-0.0007525 5.76985e-11
-0.0007475 1.5469e-11
-0.0007425 1.78082e-10
-0.0007375 2.401e-10
-0.0007325 8.37532e-11
-0.0007275 5.27622e-12
-0.0007225 1.5956e-10
-0.0007175 2.60887e-10
-0.0007125 1.16363e-10
-0.0007075 5.17765e-13
-0.0007025 1.49357e-10
-0.0006975 3.04286e-10
-0.0006925 1.79162e-10
-0.0006875 3.99508e-12
-0.0006825 1.15998e-10
-0.0006775 3.28232e-10
-0.0006725 2.56698e-10
-0.0006675 2.97072e-11
-0.0006625 6.54062e-11
-0.0006575 3.03617e-10
-0.0006525 3.07889e-10
-0.0006475 6.88116e-11
-0.0006425 3.02296e-11
-0.0006375 2.73689e-10
-0.0006325 3.59542e-10
-0.0006275 1.30628e-10
-0.0006225 4.36405e-12
-0.0006175 2.08356e-10
-0.0006125 3.63703e-10
-0.0006075 1.84643e-10
-0.0006025 1.0201e-12
-0.0005975 1.39594e-10
-0.0005925 3.20079e-10
-0.0005875 1.92043e-10
-0.0005825 3.39197e-12
-0.0005775 1.35754e-10
-0.0005725 3.69409e-10
-0.0005675 2.74895e-10
-0.0005625 2.43737e-11
-0.0005575 9.18157e-11
-0.0005525 3.67507e-10
-0.0005475 3.43747e-10
-0.0005425 6.12215e-11
-0.0005375 5.48275e-11
-0.0005325 3.62747e-10
-0.0005275 4.32216e-10
-0.0005225 1.33079e-10
-0.0005175 1.55102e-11
-0.0005125 3.0474e-10
-0.0005075 4.7433e-10
-0.0005025 2.0989e-10
-0.0004975 4.41804e-13
-0.0004925 2.46389e-10
-0.0004875 5.12037e-10
-0.0004825 3.14989e-10
-0.0004775 1.32092e-11
-0.0004725 1.48335e-10
-0.0004675 4.49948e-10
-0.0004625 3.45363e-10
-0.0004575 3.21527e-11
-0.0004525 1.12122e-10
-0.0004475 4.57241e-10
-0.0004425 4.31532e-10
-0.0004375 7.9798e-11
-0.0004325 6.1966e-11
-0.0004275 4.24136e-10
-0.0004225 4.95694e-10
-0.0004175 1.38886e-10
-0.0004125 2.89949e-11
-0.0004075 4.03309e-10
-0.0004025 5.92071e-10
-0.0003975 2.45435e-10
-0.0003925 2.13415e-12
-0.0003875 3.22782e-10
-0.0003825 6.2298e-10
-0.0003775 3.43415e-10
-0.0003725 3.71062e-12
-0.0003675 2.59272e-10
-0.0003625 6.71898e-10
-0.0003575 4.92214e-10
-0.0003525 4.57752e-11
-0.0003475 1.48195e-10
-0.0003425 5.9964e-10
-0.0003375 5.51875e-10
-0.0003325 9.22853e-11
-0.0003275 9.57636e-11
-0.0003225 5.87499e-10
-0.0003175 6.681e-10
-0.0003125 1.84011e-10
-0.0003075 3.76604e-11
-0.0003025 5.13433e-10
-0.0002975 7.26849e-10
-0.0002925 2.71959e-10
-0.0002875 1.09038e-11
-0.0002825 4.74621e-10
-0.0002775 8.30164e-10
-0.0002725 4.09913e-10
-0.0002675 1.16825e-13
-0.0002625 4.15111e-10
-0.0002575 9.40546e-10
-0.0002525 6.08781e-10
-0.0002475 2.7012e-11
-0.0002425 3.09303e-10
-0.0002375 9.89905e-10
-0.0002325 8.24916e-10
-0.0002275 1.0886e-10
-0.0002225 1.93715e-10
-0.0002175 9.83235e-10
-0.0002125 1.04511e-09
-0.0002075 2.54054e-10
-0.0002025 8.75718e-11
-0.0001975 9.06266e-10
-0.0001925 1.22397e-09
-0.0001875 4.41041e-10
-0.0001825 2.21e-11
-0.0001775 8.08218e-10
-0.0001725 1.38299e-09
-0.0001675 6.62834e-10
-0.0001625 9.3701e-14
-0.0001575 7.42564e-10
-0.0001525 1.63484e-09
-0.0001475 1.03602e-09
-0.0001425 3.87817e-11
-0.0001375 5.74309e-10
-0.0001325 1.77279e-09
-0.0001275 1.43166e-09
-0.0001225 1.5851e-10
-0.0001175 4.29604e-10
-0.0001125 1.95769e-09
-0.0001075 1.9911e-09
-0.0001025 4.19425e-10
-9.75e-05 2.64803e-10
-9.25e-05 2.13891e-09
-8.75e-05 2.77745e-09
-8.25e-05 9.4508e-10
-7.75e-05 8.74657e-11
-7.25e-05 2.1907e-09
-6.75e-05 3.71162e-09
-6.25e-05 1.78786e-09
-5.75e-05 1.95588e-12
-5.25e-05 2.31804e-09
-4.75e-05 5.24106e-09
-4.25e-05 3.40726e-09
-3.75e-05 8.8429e-11
-3.25e-05 2.6938e-09
-2.75e-05 8.7061e-09
-2.25e-05 7.77568e-09
-1.75e-05 8.45923e-10
-1.25e-05 4.49484e-09
-7.5e-06 2.72348e-08
-2.5e-06 5.12618e-08
2.5e-06 5.12618e-08
7.5e-06 2.72348e-08
1.25e-05 4.49484e-09
1.75e-05 8.45923e-10
2.25e-05 7.77568e-09
2.75e-05 8.7061e-09
3.25e-05 2.6938e-09
3.75e-05 8.8429e-11
4.25e-05 3.40726e-09
4.75e-05 5.24106e-09
5.25e-05 2.31804e-09
5.75e-05 1.95588e-12
6.25e-05 1.78786e-09
6.75e-05 3.71162e-09
7.25e-05 2.1907e-09
7.75e-05 8.74657e-11
8.25e-05 9.4508e-10
8.75e-05 2.77745e-09
9.25e-05 2.13891e-09
9.75e-05 2.64803e-10
0.0001025 4.19425e-10
0.0001075 1.9911e-09
0.0001125 1.95769e-09
0.0001175 4.29604e-10
0.0001225 1.5851e-10
0.0001275 1.43166e-09
0.0001325 1.77279e-09
0.0001375 5.74309e-10
0.0001425 3.87817e-11
0.0001475 1.03602e-09
0.0001525 1.63484e-09
0.0001575 7.42564e-10
0.0001625 9.3701e-14
0.0001675 6.62834e-10
0.0001725 1.38299e-09
0.0001775 8.08218e-10
0.0001825 2.21e-11
0.0001875 4.41041e-10
0.0001925 1.22397e-09
0.0001975 9.06266e-10
0.0002025 8.75718e-11
0.0002075 2.54054e-10
0.0002125 1.04511e-09
0.0002175 9.83235e-10
0.0002225 1.93715e-10
0.0002275 1.0886e-10
0.0002325 8.24916e-10
0.0002375 9.89905e-10
0.0002425 3.09303e-10
0.0002475 2.7012e-11
0.0002525 6.08781e-10
0.0002575 9.40546e-10
0.0002625 4.15111e-10
0.0002675 1.16825e-13
0.0002725 4.09913e-10
0.0002775 8.30164e-10
0.0002825 4.74621e-10
0.0002875 1.09038e-11
0.0002925 2.71959e-10
0.0002975 7.26849e-10
0.0003025 5.13433e-10
0.0003075 3.76604e-11
0.0003125 1.84011e-10
0.0003175 6.681e-10
0.0003225 5.87499e-10
0.0003275 9.57636e-11
0.0003325 9.22853e-11
0.0003375 5.51875e-10
0.0003425 5.9964e-10
0.0003475 1.48195e-10
0.0003525 4.57752e-11
0.0003575 4.92214e-10
0.0003625 6.71898e-10
0.0003675 2.59272e-10
0.0003725 3.71062e-12
0.0003775 3.43415e-10
0.0003825 6.2298e-10
0.0003875 3.22782e-10
0.0003925 2.13415e-12
0.0003975 2.45435e-10
0.0004025 5.92071e-10
0.0004075 4.03309e-10
0.0004125 2.89949e-11
0.0004175 1.38886e-10
0.0004225 4.95694e-10
0.0004275 4.24136e-10
0.0004325 6.1966e-11
0.0004375 7.9798e-11
0.0004425 4.31532e-10
0.0004475 4.57241e-10
0.0004525 1.12122e-10
0.0004575 3.21527e-11
0.0004625 3.45363e-10
0.0004675 4.49948e-10
0.0004725 1.48335e-10
0.0004775 1.32092e-11
0.0004825 3.14989e-10
0.0004875 5.12037e-10
0.0004925 2.46389e-10
0.0004975 4.41804e-13
0.0005025 2.0989e-10
0.0005075 4.7433e-10
0.0005125 3.0474e-10
0.0005175 1.55102e-11
0.0005225 1.33079e-10
0.0005275 4.32216e-10
0.0005325 3.62747e-10
0.0005375 5.48275e-11
0.0005425 6.12215e-11
0.0005475 3.43747e-10
0.0005525 3.67507e-10
0.0005575 9.18157e-11
0.0005625 2.43737e-11
0.0005675 2.74895e-10
0.0005725 3.69409e-10
0.0005775 1.35754e-10
0.0005825 3.39197e-12
0.0005875 1.92043e-10
0.0005925 3.20079e-10
0.0005975 1.39594e-10
0.0006025 1.0201e-12
0.0006075 1.84643e-10
0.0006125 3.63703e-10
0.0006175 2.08356e-10
0.0006225 4.36405e-12
0.0006275 1.30628e-10
0.0006325 3.59542e-10
0.0006375 2.73689e-10
0.0006425 3.02296e-11
0.0006475 6.88116e-11
0.0006525 3.07889e-10
0.0006575 3.03617e-10
0.0006625 6.54062e-11
0.0006675 2.97072e-11
0.0006725 2.56698e-10
0.0006775 3.28232e-10
0.0006825 1.15998e-10
0.0006875 3.99508e-12
0.0006925 1.79162e-10
0.0006975 3.04286e-10
0.0007025 1.49357e-10
0.0007075 5.17765e-13
0.0007125 1.16363e-10
0.0007175 2.60887e-10
0.0007225 1.5956e-10
0.0007275 5.27622e-12
0.0007325 8.37532e-11
0.0007375 2.401e-10
0.0007425 1.78082e-10
0.0007475 1.5469e-11
0.0007525 5.76985e-11
0.0007575 2.24754e-10
0.0007625 2.03716e-10
0.0007675 3.43117e-11
0.0007725 3.22949e-11
0.0007775 1.98783e-10
0.0007825 2.19759e-10
0.0007875 5.50047e-11
0.0007925 1.78052e-11
0.0007975 1.94184e-10
0.0008025 2.76332e-10
0.0008075 1.19484e-10
0.0008125 2.6855e-15
0.0008175 1.09635e-10
0.0008225 2.20333e-10
0.0008275 1.20297e-10
0.0008325 1.10703e-12
0.0008375 9.05339e-11
0.0008425 2.27306e-10
0.0008475 1.62128e-10
0.0008525 1.48908e-11
0.0008575 4.46054e-11
0.0008625 1.73384e-10
0.0008675 1.4704e-10
0.0008725 1.7292e-11
0.0008775 4.09024e-11
0.0008825 1.90821e-10
0.0008875 1.98126e-10
0.0008925 4.92534e-11
0.0008975 1.28532e-11
0.0009025 1.45277e-10
0.0009075 1.91644e-10
0.0009125 6.36976e-11
0.0009175 5.88692e-12
0.0009225 1.40421e-10
0.0009275 2.33709e-10
0.0009325 1.19229e-10
0.0009375 1.12485e-12
0.0009425 8.25171e-11
0.0009475 2.01457e-10
0.0009525 1.35674e-10
0.0009575 8.36954e-12
0.0009625 5.41159e-11
0.0009675 1.86011e-10
0.0009725 1.59807e-10
0.0009775 2.4357e-11
0.0009825 2.87706e-11
0.0009875 1.63894e-10
0.0009925 1.81732e-10
0.0009975 5.03611e-11
0.0010025 8.64152e-12
0.0010075 1.28689e-10
0.0010125 1.89474e-10
0.0010175 8.19914e-11
0.0010225 3.25303e-14
0.0010275 8.1386e-11
0.0010325 1.65617e-10
0.0010375 9.7233e-11
0.0010425 3.20653e-12
0.0010475 4.79042e-11
0.0010525 1.35386e-10
0.0010575 9.92878e-11
0.0010625 8.96016e-12
0.0010675 2.89042e-11
0.0010725 1.11979e-10
0.0010775 9.74463e-11
0.0010825 1.41419e-11
0.0010875 1.84139e-11
0.0010925 9.58566e-11
0.0010975 9.33375e-11
0.0011025 1.52594e-11
0.0011075 1.93639e-11
0.0011125 1.16292e-10
0.0011175 1.38835e-10
0.0011225 4.64035e-11
0.0011275 2.33155e-12
0.0011325 7.81844e-11
0.0011375 1.27659e-10
0.0011425 5.85781e-11
0.0011475 1.04903e-14
0.0011525 6.13408e-11
0.0011575 1.31511e-10
0.0011625 8.40699e-11
0.0011675 5.14347e-12
0.0011725 3.00698e-11
0.0011775 9.89607e-11
0.0011825 7.76771e-11
0.0011875 7.85307e-12
0.0011925 2.2661e-11
0.0011975 9.53496e-11
0.0012025 9.08547e-11
0.0012075 1.79256e-11
0.0012125 1.04593e-11
0.0012175 7.82692e-11
0.0012225 9.28295e-11
0.0012275 2.78616e-11
0.0012325 3.02728e-12
0.0012375 5.62958e-11
0.0012425 7.73913e-11
0.0012475 2.36583e-11
0.0012525 4.74897e-12
0.0012575 7.18259e-11
0.0012625 1.10396e-10
0.0012675 4.90727e-11
0.0012725 1.19981e-13
0.0012775 6.05816e-11
0.0012825 1.31091e-10
0.0012875 8.91248e-11
0.0012925 7.93738e-12
0.0012975 2.45084e-11
0.0013025 9.62457e-11
0.0013075 8.56111e-11
0.0013125 1.30527e-11
0.0013175 1.70472e-11
0.0013225 9.86889e-11
0.0013275 1.17259e-10
0.0013325 4.14174e-11
0.0013375 7.63822e-13
0.0013425 5.29514e-11
0.0013475 9.08099e-11
0.0013525 4.42873e-11
0.0013575 1.5848e-13
0.0013625 3.32564e-11
0.0013675 7.26731e-11
0.0013725 4.20392e-11
0.0013775 7.69613e-13
0.0013825 2.65143e-11
0.0013875 6.83137e-11
0.0013925 4.56312e-11
0.0013975 2.03379e-12
0.0014025 2.35226e-11
0.0014075 7.56939e-11
0.0014125 6.50872e-11
0.0014175 1.09399e-11
0.0014225 9.10576e-12
0.0014275 5.65617e-11
0.0014325 6.08476e-11
0.0014375 1.37462e-11
0.0014425 6.76201e-12
0.0014475 6.13259e-11
0.0014525 8.67813e-11
0.0014575 4.10718e-11
0.0014625 6.23586e-13
0.0014675 2.00603e-11
0.0014725 4.37329e-11
0.0014775 2.10796e-11
0.0014825 1.10781e-13
0.0014875 2.85866e-11
0.0014925 5.81132e-11
0.0014975 3.42447e-11
0.0015025 8.697e-13
0.0015075 2.05231e-11
0.0015125 5.84785e-11
0.0015175 4.62855e-11
0.0015225 6.33877e-12
0.0015275 8.14879e-12
0.0015325 4.09997e-11
0.0015375 3.87952e-11
0.0015425 5.99976e-12
0.0015475 8.33631e-12
0.0015525 4.80325e-11
0.0015575 5.72911e-11
0.0015625 2.07703e-11
0.0015675 1.43176e-13
0.0015725 2.02778e-11
0.0015775 3.10421e-11
0.0015825 9.2965e-12
0.0015875 2.58613e-12
0.0015925 3.31651e-11
0.0015975 4.94075e-11
0.0016025 2.13202e-11
0.0016075 6.40302e-14
0.0016125 2.4852e-11
0.0016175 4.9133e-11
0.0016225 2.68347e-11
0.0016275 1.69396e-13
0.0016325 2.29684e-11
0.0016375 5.87793e-11
0.0016425 4.43625e-11
0.0016475 5.16004e-12
0.0016525 1.03047e-11
0.0016575 4.779e-11
0.0016625 4.76779e-11
0.0016675 1.03276e-11
0.0016725 4.80799e-12
0.0016775 4.16519e-11
0.0016825 5.37646e-11
0.0016875 1.92893e-11
0.0016925 6.18166e-13
0.0016975 2.97524e-11
0.0017025 5.12801e-11
0.0017075 2.54166e-11
0.0017125 6.74111e-14
0.0017175 2.14483e-11
0.0017225 4.97796e-11
0.0017275 3.33981e-11
0.0017325 2.39363e-12
0.0017375 1.1134e-11
0.0017425 3.91036e-11
0.0017475 3.20824e-11
0.0017525 3.67905e-12
0.0017575 8.73776e-12
0.0017625 4.03026e-11
0.0017675 4.18153e-11
0.0017725 1.07773e-11
0.0017775 2.14501e-12
0.0017825 2.71816e-11
0.0017875 3.53811e-11
0.0017925 1.06723e-11
0.0017975 2.00847e-12
0.0018025 3.18209e-11
0.0018075 5.19253e-11
0.0018125 2.84854e-11
0.0018175 1.1563e-12
0.0018225 1.08814e-11
0.0018275 3.01111e-11
0.0018325 1.92836e-11
0.0018375 4.49225e-13
0.0018425 1.32392e-11
0.0018475 3.87789e-11
0.0018525 3.3062e-11
0.0018575 6.36041e-12
0.0018625 2.82009e-12
0.0018675 2.10978e-11
0.0018725 2.20859e-11
0.0018775 4.11533e-12
0.0018825 3.50504e-12
0.0018875 2.29336e-11
0.0018925 2.54461e-11
0.0018975 5.78583e-12
0.0019025 3.21181e-12
0.0019075 2.8744e-11
0.0019125 4.14475e-11
0.0019175 2.00531e-11
0.0019225 2.99862e-13
0.0019275 1.05446e-11
0.0019325 2.38237e-11
0.0019375 1.21215e-11
0.0019425 4.57514e-14
0.0019475 1.81401e-11
0.0019525 4.26876e-11
0.0019575 3.43393e-11
0.0019625 6.82129e-12
0.0019675 2.26422e-12
0.0019725 1.90821e-11
0.0019775 2.08526e-11
0.0019825 4.52522e-12
0.0019875 2.31864e-12
0.0019925 1.88438e-11
0.0019975 2.27264e-11
0.0020025 6.50265e-12
0.0020075 1.28551e-12
0.0020125 1.86702e-11
0.0020175 2.82445e-11
0.0020225 1.28576e-11
0.0020275 2.1327e-15
0.0020325 1.18576e-11
0.0020375 2.56102e-11
0.0020425 1.58047e-11
0.0020475 5.94935e-13
0.0020525 8.30898e-12
0.0020575 2.62035e-11
0.0020625 2.34804e-11
0.0020675 5.24265e-12
0.0020725 1.35111e-12
0.0020775 1.38793e-11
0.0020825 1.73225e-11
0.0020875 5.79468e-12
0.0020925 2.00118e-13
0.0020975 7.75371e-12
0.0021025 1.12384e-11
0.0021075 3.7218e-12
0.0021125 3.46528e-13
0.0021175 7.35143e-12
0.0021225 1.02057e-11
0.0021275 2.99962e-12
0.0021325 7.67885e-13
0.0021375 1.00041e-11
0.0021425 1.44395e-11
0.0021475 5.42568e-12
0.0021525 3.33481e-13
0.0021575 1.20454e-11
0.0021625 2.3941e-11
0.0021675 1.72594e-11
0.0021725 2.87417e-12
0.0021775 1.33375e-12
0.0021825 8.35151e-12
0.0021875 6.90173e-12
0.0021925 3.23483e-13
0.0021975 4.48888e-12
0.0022025 1.54974e-11
0.0022075 1.4871e-11
0.0022125 3.46359e-12
0.0022175 1.11284e-12
0.0022225 1.17327e-11
0.0022275 1.67462e-11
0.0022325 7.89671e-12
0.0022375 1.24907e-13
0.0022425 3.69428e-12
0.0022475 7.95671e-12
0.0022525 3.80189e-12
0.0022575 6.81658e-15
0.0022625 4.06183e-12
0.0022675 6.95347e-12
0.0022725 2.1295e-12
0.0022775 1.00039e-12
0.0022825 1.21321e-11
0.0022875 2.17132e-11
0.0022925 1.47913e-11
0.0022975 1.91502e-12
0.0023025 2.30641e-12
0.0023075 1.16123e-11
0.0023125 1.11349e-11
0.0023175 1.85036e-12
0.0023225 2.23286e-12
0.0023275 1.40992e-11
0.0023325 1.81655e-11
0.0023375 7.6115e-12
0.0023425 1.41347e-16
0.0023475 6.72153e-12
0.0023525 1.41478e-11
0.0023575 8.6834e-12
0.0023625 3.66644e-13
0.0023675 4.23399e-12
0.0023725 1.38154e-11
0.0023775 1.29054e-11
0.0023825 3.30407e-12
0.0023875 4.46659e-13
0.0023925 6.91832e-12
0.0023975 1.00456e-11
0.0024025 4.63928e-12
0.0024075 5.55118e-14
0.0024125 2.34207e-12
0.0024175 5.05438e-12
0.0024225 2.63828e-12
0.0024275 4.90215e-15
0.0024325 2.45733e-12
0.0024375 6.16124e-12
0.0024425 5.41522e-12
0.0024475 1.8453e-12
0.0024525 5.97528e-14
0.0024575 1.12798e-13
0.0024625 5.22976e-15
0.0024675 6.79765e-13
0.0024725 3.13741e-12
0.0024775 4.68831e-12
0.0024825 3.00434e-12
0.0024875 4.65916e-13
0.0024925 1.83005e-13
0.0024975 1.02864e-12
0.0025025 6.49191e-13
0.0025075 3.01079e-18
0.0025125 7.3953e-13
0.0025175 1.40859e-12
0.0025225 5.00046e-13
0.0025275 1.41989e-13
0.0025325 2.20005e-12
0.0025375 3.86753e-12
0.0025425 2.18338e-12
0.0025475 2.87145e-14
0.0025525 1.86712e-12
0.0025575 5.77272e-12
0.0025625 6.0298e-12
0.0025675 2.36515e-12
0.0025725 2.21834e-14
0.0025775 9.8411e-13
0.0025825 1.75458e-12
0.0025875 5.41795e-13
0.0025925 1.5518e-13
0.0025975 1.99504e-12
0.0026025 3.0787e-12
0.0026075 1.56162e-12
0.0026125 4.26329e-14
0.0026175 5.85825e-13
0.0026225 1.20931e-12
0.0026275 3.51413e-13
0.0026325 2.27287e-13
0.0026375 2.23517e-12
0.0026425 3.4137e-12
0.0026475 1.5909e-12
0.0026525 1.05561e-15
0.0026575 1.97142e-12
0.0026625 4.6147e-12
0.0026675 3.437e-12
0.0026725 3.92951e-13
0.0026775 9.10955e-13
0.0026825 4.52101e-12
0.0026875 5.39528e-12
0.0026925 2.12215e-12
0.0026975 1.97628e-15
0.0027025 2.13828e-12
0.0027075 4.62284e-12
0.0027125 3.41414e-12
0.0027175 6.23586e-13
0.0027225 1.94547e-13
0.0027275 1.50598e-12
0.0027325 1.51537e-12
0.0027375 2.98113e-13
0.0027425 1.48025e-13
0.0027475 1.05794e-12
0.0027525 1.11465e-12
0.0027575 2.57253e-13
0.0027625 6.14465e-14
0.0027675 5.37158e-13
0.0027725 4.07455e-13
0.0027775 6.68182e-18
0.0027825 6.84195e-13
0.0027875 1.81124e-12
0.0027925 1.45592e-12
0.0027975 1.55184e-13
0.0028025 5.68553e-13
0.0028075 2.93697e-12
0.0028125 4.16656e-12
0.0028175 2.53909e-12
0.0028225 3.52281e-13
0.0028275 2.40759e-13
0.0028325 1.40605e-12
0.0028375 1.54686e-12
0.0028425 5.57939e-13
0.0028475 1.65012e-15
0.0028525 2.15096e-13
0.0028575 2.5388e-13
0.0028625 8.02805e-15
0.0028675 2.75946e-13
0.0028725 9.95405e-13
0.0028775 1.17832e-12
0.0028825 5.93192e-13
0.0028875 6.2465e-14
0.0028925 3.41992e-14
0.0028975 1.01783e-13
0.0029025 1.63786e-14
0.0029075 4.78869e-14
0.0029125 2.15568e-13
0.0029175 1.72222e-13
0.0029225 2.62603e-15
0.0029275 2.16002e-13
0.0029325 7.81322e-13
0.0029375 1.02513e-12
0.0029425 6.71582e-13
0.0029475 2.01963e-13
0.0029525 1.78147e-14
0.0029575 2.62086e-15
0.0029625 4.86107e-14
0.0029675 2.30491e-13
0.0029725 3.30385e-13
0.0029775 8.94738e-14
0.0029825 1.43697e-13
0.0029875 1.64531e-12
0.0029925 4.40484e-12
0.0029975 6.36791e-12
0.0030025 5.78439e-12
0.0030075 3.28356e-12
0.0030125 9.87866e-13
0.0030175 6.65463e-14
0.0030225 2.98621e-14
0.0030275 6.19413e-14
0.0030325 8.28361e-15
0.0030375 9.43122e-15
0.0030425 2.15982e-14
0.0030475 1.0412e-16
0.0030525 5.36367e-14
0.0030575 1.84977e-13
0.0030625 2.1758e-13
0.0030675 1.04517e-13
0.0030725 8.83485e-15
0.0030775 5.25265e-15
0.0030825 3.20647e-15
0.0030875 2.7496e-14
0.0030925 2.63629e-13
0.0030975 7.17745e-13
0.0031025 1.09271e-12
0.0031075 1.12685e-12
0.0031125 8.713e-13
0.0031175 5.47383e-13
0.0031225 2.87731e-13
0.0031275 9.72503e-14
0.0031325 2.8428e-17
0.0031375 2.38766e-13
0.0031425 1.30879e-12
0.0031475 3.46711e-12
0.0031525 5.94041e-12
0.0031575 7.00987e-12
0.0031625 5.56549e-12
0.0031675 2.57414e-12
0.0031725 3.48359e-13
0.0031775 1.4026e-13
0.0031825 1.00005e-12
0.0031875 1.27984e-12
0.0031925 6.47117e-13
0.0031975 4.82877e-14
0.0032025 1.24527e-13
0.0032075 4.75674e-13
0.0032125 4.85132e-13
0.0032175 1.81331e-13
0.0032225 7.85964e-16
0.0032275 1.09912e-13
0.0032325 2.9767e-13
0.0032375 3.54193e-13
0.0032425 2.80686e-13
0.0032475 1.75092e-13
0.0032525 9.15637e-14
0.0032575 3.19211e-14
0.0032625 2.19119e-16
0.0032675 4.54037e-14
0.0032725 2.41188e-13
0.0032775 5.82793e-13
0.0032825 9.1313e-13
0.0032875 1.02205e-12
0.0032925 8.40913e-13
0.0032975 4.98602e-13
0.0033025 1.8639e-13
0.0033075 1.84988e-14
0.0033125 2.87829e-14
0.0033175 2.48428e-13
0.0033225 7.3971e-13
0.0033275 1.5133e-12
0.0033325 2.36828e-12
0.0033375 2.86109e-12
0.0033425 2.60131e-12
0.0033475 1.67601e-12
0.0033525 6.65855e-13
0.0033575 1.05288e-13
0.0033625 3.78655e-16
0.0033675 1.13006e-14
0.0033725 5.72311e-15
0.0033775 1.93874e-13
0.0033825 7.12819e-13
0.0033875 1.32127e-12
0.0033925 1.63151e-12
0.0033975 1.51125e-12
0.0034025 1.14103e-12
0.0034075 7.63682e-13
0.0034125 4.91328e-13
0.0034175 3.12404e-13
0.0034225 1.79039e-13
0.0034275 6.99118e-14
0.0034325 5.96794e-15
0.0034375 1.24655e-14
0.0034425 6.6675e-14
0.0034475 1.07419e-13
0.0034525 9.91753e-14
0.0034575 5.92264e-14
0.0034625 2.11588e-14
0.0034675 1.37542e-15
0.0034725 8.70975e-15
0.0034775 7.31908e-14
0.0034825 2.49288e-13
0.0034875 5.37809e-13
0.0034925 7.59072e-13
0.0034975 6.24435e-13
0.0035025 1.66394e-13
0.0035075 6.67961e-14
0.0035125 1.1452e-12
0.0035175 3.24793e-12
0.0035225 4.95805e-12
0.0035275 4.87833e-12
0.0035325 3.12951e-12
0.0035375 1.16653e-12
0.0035425 1.54916e-13
0.0035475 4.46423e-15
0.0035525 3.87768e-14
0.0035575 2.05869e-15
0.0035625 5.25153e-14
0.0035675 2.01298e-13
0.0035725 2.58173e-13
0.0035775 1.76265e-13
0.0035825 8.32769e-14
0.0035875 5.44623e-14
0.0035925 9.14078e-14
0.0035975 1.84992e-13
0.0036025 2.15542e-13
0.0036075 6.18096e-14
0.0036125 7.9419e-14
0.0036175 1.09562e-12
0.0036225 3.39008e-12
0.0036275 5.86663e-12
0.0036325 6.85199e-12
0.0036375 5.77285e-12
0.0036425 3.61113e-12
0.0036475 1.71412e-12
0.0036525 6.36226e-13
0.0036575 1.77463e-13
0.0036625 1.24163e-14
0.0036675 6.84354e-14
0.0036725 6.17989e-13
0.0036775 2.03844e-12
0.0036825 4.07524e-12
0.0036875 5.42735e-12
0.0036925 4.78781e-12
0.0036975 2.49757e-12
0.0037025 4.60458e-13
0.0037075 5.15805e-14
0.0037125 7.38936e-13
0.0037175 1.17337e-12
0.0037225 9.22066e-13
0.0037275 4.97154e-13
0.0037325 3.1151e-13
0.0037375 4.17574e-13
0.0037425 8.20588e-13
0.0037475 1.24015e-12
0.0037525 1.02182e-12
0.0037575 2.10832e-13
0.0037625 2.09559e-13
0.0037675 2.08686e-12
0.0037725 4.49115e-12
0.0037775 4.81137e-12
0.0037825 2.62395e-12
0.0037875 3.951e-13
0.0037925 1.35254e-13
0.0037975 9.17715e-13
0.0038025 8.41644e-13
0.0038075 9.28584e-14
0.0038125 3.29461e-13
0.0038175 1.72501e-12
0.0038225 2.54467e-12
0.0038275 1.74817e-12
0.0038325 4.09418e-13
0.0038375 2.4507e-14
0.0038425 6.01091e-13
0.0038475 1.12737e-12
0.0038525 1.09797e-12
0.0038575 8.12104e-13
0.0038625 6.57251e-13
0.0038675 7.6553e-13
0.0038725 1.10766e-12
0.0038775 1.43059e-12
0.0038825 1.31134e-12
0.0038875 6.73026e-13
0.0038925 7.21239e-14
0.0038975 1.32861e-13
0.0039025 8.32065e-13
0.0039075 1.6098e-12
0.0039125 2.03952e-12
0.0039175 2.13281e-12
0.0039225 2.09353e-12
0.0039275 2.006e-12
0.0039325 1.75584e-12
0.0039375 1.19806e-12
0.0039425 4.66108e-13
0.0039475 2.04605e-14
0.0039525 1.3778e-13
0.0039575 4.4668e-13
0.0039625 3.8118e-13
0.0039675 5.28401e-14
0.0039725 1.05462e-13
0.0039775 6.17867e-13
0.0039825 8.52444e-13
0.0039875 4.21039e-13
0.0039925 4.21224e-15
0.0039975 3.41156e-13
0.0040025 1.05938e-12
0.0040075 1.22392e-12
0.0040125 6.85446e-13
0.0040175 1.32102e-13
0.0040225 3.7386e-15
0.0040275 8.19691e-14
0.0040325 8.91174e-14
0.0040375 4.89482e-14
0.0040425 5.1376e-14
0.0040475 1.76016e-13
0.0040525 5.80912e-13
0.0040575 1.17881e-12
0.0040625 1.403e-12
0.0040675 8.84013e-13
0.0040725 1.63449e-13
0.0040775 4.574e-14
0.0040825 4.24053e-13
0.0040875 5.39236e-13
0.0040925 2.32011e-13
0.0040975 1.06699e-14
0.0041025 1.18782e-14
0.0041075 3.16807e-15
0.0041125 3.53627e-13
0.0041175 1.61534e-12
0.0041225 2.96001e-12
0.0041275 2.68022e-12
0.0041325 8.88816e-13
0.0041375 2.28458e-14
0.0041425 1.50715e-12
0.0041475 3.44966e-12
0.0041525 3.25481e-12
0.0041575 1.29715e-12
0.0041625 4.05711e-14
0.0041675 3.27159e-13
0.0041725 7.4788e-13
0.0041775 4.00037e-13
0.0041825 1.21161e-14
0.0041875 1.05591e-13
0.0041925 1.29707e-13
0.0041975 6.97923e-15
0.0042025 6.57431e-13
0.0042075 2.13754e-12
0.0042125 2.90799e-12
0.0042175 1.99705e-12
0.0042225 5.25221e-13
0.0042275 1.44006e-15
0.0042325 3.00151e-13
0.0042375 4.24906e-13
0.0042425 1.94131e-13
0.0042475 3.25254e-14
0.0042525 1.95981e-14
0.0042575 1.72607e-13
0.0042625 7.31054e-13
0.0042675 1.28013e-12
0.0042725 8.63636e-13
0.0042775 2.06347e-14
0.0042825 1.05109e-12
0.0042875 4.57598e-12
0.0042925 7.46049e-12
0.0042975 6.48267e-12
0.0043025 2.8317e-12
0.0043075 3.14062e-13
0.0043125 8.31415e-14
0.0043175 2.38676e-13
0.0043225 5.59282e-16
0.0043275 5.72871e-13
0.0043325 1.72316e-12
0.0043375 1.46707e-12
0.0043425 1.35399e-13
0.0043475 7.86745e-13
0.0043525 3.85792e-12
0.0043575 5.37622e-12
0.0043625 3.04988e-12
0.0043675 2.6641e-13
0.0043725 5.47227e-13
0.0043775 1.76839e-12
0.0043825 7.30194e-13
0.0043875 3.30807e-13
0.0043925 5.59043e-12
0.0043975 1.37271e-11
0.0044025 1.56331e-11
0.0044075 8.64189e-12
0.0044125 1.09054e-12
0.0044175 9.61005e-13
0.0044225 5.60073e-12
0.0044275 7.20267e-12
0.0044325 4.06146e-12
0.0044375 7.76683e-13
0.0044425 2.42605e-15
0.0044475 8.43552e-14
0.0044525 4.41952e-14
0.0044575 1.17881e-12
0.0044625 3.08411e-12
0.0044675 3.02681e-12
0.0044725 8.19495e-13
0.0044775 2.15055e-13
0.0044825 3.29262e-12
0.0044875 6.7559e-12
0.0044925 6.40987e-12
0.0044975 2.89842e-12
0.0045025 2.51418e-13
0.0045075 3.54185e-13
0.0045125 1.57571e-12
0.0045175 2.01912e-12
0.0045225 1.63263e-12
0.0045275 1.20773e-12
0.0045325 1.12828e-12
0.0045375 1.31078e-12
0.0045425 1.33257e-12
0.0045475 7.52866e-13
0.0045525 3.75481e-14
0.0045575 5.49361e-13
0.0045625 2.68112e-12
0.0045675 4.72258e-12
0.0045725 4.73781e-12
0.0045775 2.9606e-12
0.0045825 1.17112e-12
0.0045875 3.44982e-13
0.0045925 1.81397e-13
0.0045975 2.9264e-13
0.0046025 4.33336e-13
0.0046075 1.96809e-13
0.0046125 8.70957e-14
0.0046175 2.1598e-12
0.0046225 7.41473e-12
0.0046275 1.2833e-11
0.0046325 1.35783e-11
0.0046375 8.74666e-12
0.0046425 2.74507e-12
0.0046475 6.23821e-14
0.0046525 6.49464e-13
0.0046575 1.59724e-12
0.0046625 1.39207e-12
0.0046675 7.1065e-13
0.0046725 3.54265e-13
0.0046775 4.07804e-13
0.0046825 8.72012e-13
0.0046875 1.53524e-12
0.0046925 1.59331e-12
0.0046975 7.02982e-13
0.0047025 1.05146e-15
0.0047075 7.88641e-13
0.0047125 2.52518e-12
0.0047175 3.389e-12
0.0047225 2.63706e-12
0.0047275 1.24391e-12
0.0047325 3.24267e-13
0.0047375 2.70899e-14
0.0047425 8.40841e-15
0.0047475 1.17462e-13
0.0047525 5.80517e-13
0.0047575 1.97367e-12
0.0047625 4.53103e-12
0.0047675 6.94629e-12
0.0047725 6.90559e-12
0.0047775 3.95716e-12
0.0047825 7.90213e-13
0.0047875 6.95483e-14
0.0047925 1.00403e-12
0.0047975 1.07489e-12
0.0048025 1.72053e-13
0.0048075 2.38017e-13
0.0048125 1.31678e-12
0.0048175 1.35178e-12
0.0048225 2.2422e-13
0.0048275 3.46233e-13
0.0048325 2.11859e-12
0.0048375 2.60156e-12
0.0048425 7.65722e-13
0.0048475 2.44607e-13
0.0048525 3.56916e-12
0.0048575 7.00216e-12
0.0048625 5.63192e-12
0.0048675 1.32543e-12
0.0048725 2.42402e-13
0.0048775 3.35588e-12
0.0048825 5.24724e-12
0.0048875 2.94747e-12
0.0048925 2.03456e-13
0.0048975 7.15885e-13
0.0049025 2.30927e-12
0.0049075 1.52821e-12
0.0049125 1.83308e-14
0.0049175 1.57233e-12
0.0049225 5.20447e-12
0.0049275 6.21237e-12
0.0049325 3.36549e-12
0.0049375 4.31566e-13
0.0049425 2.33514e-13
0.0049475 1.21374e-12
0.0049525 1.02307e-12
0.0049575 1.44671e-13
0.0049625 1.5333e-13
0.0049675 8.07625e-13
0.0049725 8.74846e-13
0.0049775 3.31019e-13
0.0049825 9.03944e-15
0.0049875 4.24244e-14
0.0049925 3.11788e-14
0.0049975 1.21968e-14
0.0050025 1.77489e-13
0.0050075 2.6464e-13
0.0050125 8.4569e-14
0.0050175 2.13104e-14
0.0050225 3.06655e-13
0.0050275 4.9052e-13
0.0050325 2.57648e-13
0.0050375 1.09833e-14
0.0050425 5.84767e-14
0.0050475 8.10377e-14
0.0050525 2.83182e-15
0.0050575 3.80983e-13
0.0050625 1.20953e-12
0.0050675 1.44953e-12
0.0050725 6.69017e-13
0.0050775 8.51504e-15
0.0050825 3.90495e-13
0.0050875 9.32528e-13
0.0050925 5.48043e-13
0.0050975 2.2626e-15
0.0051025 5.85885e-13
0.0051075 1.62818e-12
0.0051125 1.45127e-12
0.0051175 3.16641e-13
